Date;Open;High;Low;Close;Volume
20081218;0;0;0;0;0
20081219;-0,124;-0,046;-0,003;0,088;0,064
20081222;0,09;0;0,04;-0,036;-0,095
20081223;-0,041;-0,041;0,006;-0,006;-0,982
20081229;0,001;0,024;0,001;0,023;17,242
20081230;0,023;0,015;0;0;0,987
20081231;0,013;0,003;0,027;0,006;-0,375
20090105;0,09;0,084;-0,022;0,001;-0,495
20090106;-0,109;-0,032;-0,004;0,063;4,646
20090107;0,065;0,046;0,043;-0,046;2,283
20090108;-0,06;-0,105;-0,037;-0,019;-0,906
20090112;0,009;0,064;0,011;0,004;-0,55
20090113;-0,013;-0,004;-0,013;0,056;0,783
20090114;0,081;0,026;0,033;0,013;4,096
20090115;-0,025;-0,05;0,021;-0,038;-0,961
20090116;-0,024;0,024;-0,024;-0,014;0,85
20090119;0,072;0,021;0,072;0,06;-0,999
20090120;-0,07;-0,039;-0,088;-0,039;903
20090121;0,035;0,001;0,013;-0,039;-0,658
20090122;-0,047;-0,02;-0,007;0,021;0,207
20090123;0,046;0,018;-0,013;0,014;-0,029
20090126;0;0;-0,019;-0,057;8,044
20090127;-0,061;-0,061;-0,007;-0,006;-0,641
20090128;0;0;0,022;0,006;-0,991
20090129;-0,011;-0,011;-0,011;-0,011;107,6
20090130;-0,012;-0,012;-0,023;-0,014;0,828
20090202;0,012;0,012;-0,123;-0,075;2,654
20090203;-0,087;-0,087;0,015;-0,046;-0,854
20090204;-0,048;-0,048;-0,05;-0,03;1,608
20090205;-0,1;-0,017;-0,105;-0,014;4,238
20090206;0,063;0,168;0,126;0,068;-0,731
20090209;0,01;-0,104;0,01;0,007;0,003
20090210;0,09;0,058;0,034;0,058;1,753
20090211;0,057;0,055;0,083;0,002;-0,299
20090212;0,003;-0,028;0,031;0,024;-0,956
20090213;0;0,01;0;0,01;0,355
20090216;-0,015;-0,01;-0,104;-0,114;6,542
20090217;-0,121;-0,134;-0,097;-0,097;0,578
20090218;-0,088;-0,088;-0,044;-0,026;-0,093
20090219;0,023;0,023;0,041;0,021;-0,803
20090220;-0,004;-0,004;0;0;-0,99
20090223;-0,045;-0,004;-0,045;-0,004;131,6
20090224;0,047;0,099;-0,056;0,099;11,78
20090225;0,065;0,085;0,181;0,017;-0,825
20090226;0,054;-0,017;0,054;0,048;1,514
20090227;-0,008;-0,014;-0,008;-0,014;-0,81
20090302;0,012;-0,021;0,007;-0,026;-0,541
20090303;-0,044;-0,025;-0,058;-0,043;18,663
20090304;-0,028;0,012;-0,009;0,036;-0,93
20090305;0,069;0,043;0,046;0,043;1,362
20090306;0,012;0;-0,034;0;5,715
20090309;-0,033;-0,056;0,035;-0,056;-1
20090310;0,002;0,002;0,002;0,002;390
20090311;0;0,015;0;0,015;-0,985
20090312;0;0;0;0;105
20090313;-0,002;0,132;-0,002;0,132;8,858
20090316;0,037;-0,035;0,037;-0,057;-0,664
20090317;0,109;0,037;0,078;0,031;-0,815
20090318;0;0;0,018;0,023;1,692
20090319;-0,009;0,016;0,001;0,022;-0,901
20090320;0,037;0,012;0,037;0,012;-0,702
20090323;0,01;0,06;-0,004;0,06;44
20090324;0,054;0,009;0,065;0;-0,356
20090325;0,009;0,004;-0,007;-0,007;-0,62
20090326;0,027;0,027;0,048;0,048;-0,994
20090327;0;0;-0,013;-0,013;25,5
20090330;-0,013;-0,013;0;0;-0,962
20090331;0;0;0;0;0
20090401;0;0;-0,053;-0,053;0
20090402;-0,039;0,013;0,014;0,069;185,5
20090403;0,041;0;0;0;5,316
20090406;0,013;0,023;0,055;0,004;0,643
20090407;0,013;0,003;0,01;0,009;-0,09
20090408;0;0;-0,005;0,013;0,801
20090409;0,019;0,051;0,021;0,051;0,532
20090414;0,044;0;0,006;-0,042;-0,604
20090415;-0,048;-0,037;-0,006;0,005;-0,03
20090416;-0,009;0,039;-0,009;0,038;0,757
20090417;0,033;0;0,033;0,001;-0,954
20090420;0,02;-0,006;-0,036;-0,054;7,637
20090421;-0,047;-0,018;0,008;0,006;-0,737
20090422;0,005;0,056;0,005;0,082;9,544
20090423;0,089;0,065;0,089;0,06;0,127
20090424;0,069;0,03;0,053;0,032;-0,349
20090427;0,023;0,002;-0,051;-0,032;-0,509
20090428;0,004;0,318;0,098;0,271;11,599
20090429;0,364;0,04;0,218;0,041;0,368
20090430;-0,069;-0,069;0;-0,014;-0,661
20090504;0;0;0,009;0;-0,424
20090505;0,002;0,017;0,034;0,017;-0,53
20090506;-0,001;-0,016;-0,004;-0,004;-0,142
20090507;-0,003;-0,003;-0,038;-0,013;1,451
20090508;-0,038;-0,023;0,001;-0,014;-0,089
20090511;0,024;0,036;0,024;0,039;1,488
20090512;0,026;0,023;0,018;-0,008;-0,863
20090513;-0,008;-0,031;-0,046;-0,046;1,341
20090514;-0,05;-0,05;-0,004;-0,004;-0,984
20090515;0,01;0,01;-0,026;-0,026;34,874
20090518;-0,014;0,024;0,023;0,036;-0,533
20090519;0,04;0,004;0,04;0,026;-0,106
20090520;0,017;0,014;0,014;0,017;4,499
20090521;-0,025;0,007;-0,038;0,007;2,274
20090522;0,032;0,001;0,03;0,002;-0,668
20090525;0,013;0,012;0,013;0;-0,695
20090526;-0,031;-0,003;-0,012;0,007;12,289
20090527;0,03;0,002;0,013;-0,014;-0,948
20090528;-0,018;-0,016;-0,002;0,001;7,819
20090529;0,01;0,01;0,004;0,01;-0,911
20090601;0,003;0,053;0,004;0,029;4,3
20090602;0,051;0,005;0,033;0;-0,458
20090603;-0,018;-0,003;0,003;0,005;-0,428
20090604;0,009;0,002;0,005;0,023;-0,423
20090605;0,021;0,009;0,024;0,004;0,661
20090608;-0,002;0,003;-0,008;0,008;-0,288
20090609;0,008;0,073;0,016;0,073;1,447
20090610;0,077;0,039;0,077;0,038;0,067
20090612;-0,027;0,021;-0,027;0,022;-0,927
20090615;0,029;-0,034;0,013;-0,034;7,611
20090616;0,021;0;0;0;-0,595
20090617;0,02;0,02;0,007;0,01;-0,164
20090618;-0,012;-0,012;-0,001;-0,039;0,851
20090619;-0,056;-0,056;-0,071;-0,054;1,696
20090622;-0,011;-0,011;0,008;0,02;0,012
20090623;-0,071;-0,011;-0,038;-0,03;-0,681
20090624;0,032;-0,03;0;-0,015;4,167
20090625;-0,008;0,015;0,024;0;-0,784
20090626;0,023;-0,001;0,008;0,021;0,554
20090629;0;0;-0,012;-0,024;-0,056
20090630;-0,022;0,135;-0,011;0,137;10,506
20090701;0,094;-0,005;0,11;0,02;-0,841
20090702;0,056;0;0,008;-0,007;-0,936
20090703;-0,006;-0,006;-0,008;-0,022;1,479
20090706;-0,048;-0,014;-0,014;0,009;0,485
20090707;0;0,007;-0,001;-0,022;0,23
20090708;0;-0,04;-0,007;-0,033;-0,208
20090709;0;0,025;0;0,036;-0,501
20090710;0,014;-0,01;0,015;-0,014;0,796
20090713;0,02;0,02;0,017;0,014;-0,201
20090714;-0,03;-0,03;-0,007;-0,011;1,949
20090715;-0,004;-0,004;-0,039;-0,004;-0,685
20090716;-0,035;0,028;0,001;0,028;1,354
20090717;0,04;-0,023;0,04;-0,023;-0,123
20090720;0,024;0,023;0,004;0,021;-0,743
20090721;-0,003;0,035;0,018;0,017;69,593
20090722;0,035;0;0,034;0,017;-0,906
20090723;0,001;-0,003;-0,023;0;0,738
20090724;0;0;0,024;0,001;-0,142
20090727;0;0;-0,04;-0,007;0,105
20090728;-0,007;-0,007;0,004;-0,001;-0,892
20090729;-0,047;-0,001;-0,017;0;2,285
20090730;0,048;0;0,005;-0,001;-0,571
20090731;-0,016;-0,016;0,009;-0,033;6,895
20090803;-0,007;-0,007;-0,021;-0,021;-0,976
20090804;-0,028;0,007;0,004;0,011;10,133
20090805;0,006;-0,021;0,006;0,007;0,599
20090806;0,008;0,021;0,008;0,021;-0,082
20090807;0,004;0;0,004;0;3,112
20090810;0,027;0,016;0,027;0,016;-0,255
20090811;-0,017;0,052;-0,017;0,052;-0,179
20090812;0,069;-0,007;0,028;-0,007;-0,176
20090813;-0,001;-0,001;0,016;-0,023;1,177
20090814;0;0;-0,003;0,001;-0,882
20090817;-0,025;0,004;-0,017;0,027;0,359
20090818;0,029;0,003;0,001;0,003;0,34
20090819;-0,006;0;0,04;0;-0,437
20090820;0,036;0,084;0,016;0,084;0,505
20090821;0,096;0,045;0,117;0,045;-0,622
20090824;0,01;0,002;-0,045;-0,048;1,545
20090825;-0,031;0,044;0,024;0,1;-0,266
20090826;0,108;0,093;0,077;0,061;6,224
20090827;0,032;-0,024;-0,008;-0,058;3,227
20090828;-0,026;0,02;0,01;0,088;-0,947
20090831;0,052;0;0,022;-0,024;2,581
20090901;-0,024;0,005;0,013;0;-0,522
20090902;-0,021;-0,049;-0,055;-0,064;0,013
20090903;-0,045;-0,045;-0,006;-0,014;-0,691
20090904;-0,008;-0,008;0,004;0;1,874
20090907;-0,028;-0,028;-0,027;-0,027;0,048
20090908;0,001;0,045;0,006;0,051;1,806
20090909;0,073;0,076;0,045;0;-0,937
20090910;0,032;-0,015;-0,047;-0,043;8,244
20090911;-0,097;-0,088;-0,017;-0,021;-0,908
20090914;0,02;0,01;-0,001;-0,001;3,749
20090915;-0,041;-0,007;0;0,036;-0,593
20090916;0,046;0,02;0,036;0;0,978
20090917;0;-0,004;0,01;0,015;-0,28
20090918;0;-0,006;-0,028;-0,022;1,065
20090921;0;0;0,029;0,017;-0,957
20090922;-0,006;0;-0,006;0;1,951
20090923;-0,017;-0,022;-0,017;-0,022;-0,069
20090924;-0,009;0,017;-0,02;0,017;48,802
20090925;0,009;-0,017;0,003;-0,034;2,256
20090928;-0,04;-0,017;-0,038;-0,029;-0,957
20090929;-0,024;-0,046;-0,012;-0,018;-0,126
20090930;0;0;0,003;0;4,114
20091001;-0,024;0;-0,03;-0,029;0,046
20091002;-0,007;-0,029;-0,002;0;-0,936
20091005;0,002;0;0,003;0;-0,115
20091006;0,008;0,055;0,008;0,055;1,061
20091007;0,053;0,033;0,053;0,012;-0,764
20091008;0,018;-0,009;0,006;0;0,98
20091009;0,012;0,028;0,023;0,037;1,265
20091012;0,011;-0,005;0,011;-0,002;-0,8
20091013;0,001;0,016;0,001;0,016;0,148
20091014;0,016;0;0,005;-0,011;20,388
20091015;0,001;0,001;0,006;0,011;-0,986
20091016;-0,001;-0,001;0;-0,005;54,763
20091019;-0,005;0;-0,022;0;-0,055
20091020;-0,022;-0,027;-0,069;-0,028;-0,67
20091021;-0,08;-0,011;-0,012;-0,04;0,738
20091022;0,037;-0,017;0,037;0,018;-0,878
20091023;-0,005;-0,022;-0,005;-0,022;24,236
20091026;0,023;0,023;-0,022;-0,022;-0,981
20091027;-0,059;-0,047;-0,016;-0,009;26,874
20091028;-0,013;0,003;-0,013;0,002;-0,873
20091029;0,003;-0,006;0,003;-0,001;35,333
20091030;0,018;0,052;0,018;0,053;-0,969
20091102;0,054;0,001;0,035;-0,017;2,928
20091103;-0,021;-0,021;-0,003;-0,003;-0,991
20091104;0;0,009;0;0,009;27,7
20091105;0,014;0,005;-0,011;-0,02;1,153
20091106;-0,013;-0,013;-0,022;-0,022;-0,576
20091109;-0,022;-0,022;0;0;-0,609
20091110;0,005;0,005;-0,012;-0,006;41,532
20091112;-0,018;-0,015;0,005;-0,001;0,069
20091113;-0,019;-0,009;-0,011;0,001;0,222
20091116;0,025;0,012;0,003;0;-0,903
20091117;-0,025;-0,025;-0,003;-0,013;-0,94
20091118;0,037;0,038;0,012;0,012;0,591
20091119;-0,024;-0,024;0;0;15,2
20091120;-0,001;-0,001;-0,012;-0,012;-0,657
20091123;0,001;0,001;0,013;0,013;-0,964
20091124;-0,013;0;-0,019;0;32,619
20091125;0,013;0;0,019;0;-0,69
20091126;0;0;-0,031;-0,031;0,53
20091127;-0,001;-0,001;-0,026;-0,026;1,063
20091130;-0,043;0,001;0,013;0,06;-0,075
20091201;0,046;0;0,045;-0,001;0,199
20091202;-0,001;-0,001;-0,061;-0,043;5,41
20091203;-0,016;0;0,036;0,016;-0,774
20091204;-0,025;-0,028;-0,013;0;-0,967
20091207;0,006;0;0,006;0;9,73
20091208;0,006;0,003;-0,016;-0,022;9,831
20091209;-0,016;-0,019;-0,016;-0,016;-0,3
20091210;-0,023;-0,02;-0,003;-0,003;-0,418
20091211;0,019;0,016;-0,007;0,005;2,673
20091214;-0,029;-0,02;0;-0,002;-0,162
20091215;0,003;-0,006;-0,03;-0,023;-0,413
20091216;-0,004;-0,003;0,001;-0,016;1,387
20091217;0,001;0;-0,042;-0,012;-0,447
20091218;-0,044;0,034;0,029;0,057;1,434
20091221;0,088;0,032;0,075;0,045;21,254
20091222;0,033;0,012;0,032;0,006;-0,904
20091223;0,006;0;-0,027;-0,033;-0,863
20091228;-0,051;-0,051;-0,02;-0,01;-0,446
20091229;0,031;0,053;0,047;0,053;-0,236
20091230;0,022;0,026;0,01;0,006;2,374
20091231;0,012;-0,012;-0,019;-0,031;1,396
20100104;-0,018;-0,018;0,006;0,019;0,612
20100105;0,005;0,006;0,016;0,003;0,353
20100106;-0,007;0;-0,006;0;-0,732
20100107;-0,007;-0,014;-0,008;-0,004;-0,805
20100108;0,006;0,014;0,014;0,008;2,383
20100111;0,022;0,012;-0,003;0,006;3,026
20100112;0;0;-0,028;-0,001;-0,577
20100113;-0,015;-0,015;0,029;-0,012;-0,95
20100114;-0,01;-0,01;-0,018;-0,018;1,387
20100115;-0,018;0,016;-0,009;0,035;3,252
20100118;0,025;0,011;0,035;-0,003;-0,804
20100119;0,019;0,001;0,003;0,016;7,015
20100120;0,003;0;0,003;-0,004;-0,744
20100121;0;0;-0,016;-0,015;0,617
20100122;-0,018;-0,018;-0,015;-0,028;-0,875
20100125;-0,022;0,004;0,006;0,01;15,314
20100126;0,004;-0,022;0,004;0;-0,734
20100127;0,021;0,021;0;0;1,179
20100128;-0,014;0,001;-0,01;0,022;1,13
20100129;0,015;-0,001;0,032;-0,001;-0,979
20100201;-0,041;0,003;-0,041;0,003;32,602
20100202;0,042;-0,003;0,043;-0,003;3,098
20100203;0;0,003;0;0,003;-0,847
20100204;0,003;0;-0,031;-0,034;0,516
20100205;-0,034;-0,009;0;0,026;0,011
20100208;0,026;0;0,001;-0,006;6,528
20100209;0,006;0,006;0,031;0,013;-0,975
20100210;0;0,009;-0,024;0,009;3,486
20100211;0,009;0;-0,032;-0,009;-0,608
20100212;-0,007;-0,007;0,06;0,003;-0,581
20100215;0;0,01;-0,031;0,01;4,432
20100216;0,016;0,012;0,052;0,012;-0,792
20100217;0,006;0,037;-0,006;0,037;5,856
20100218;0,058;0,038;0,071;0,021;3,633
20100219;0;-0,017;0;0;-0,941
20100222;0,014;0,014;-0,02;-0,007;-0,281
20100223;-0,023;-0,023;0,006;-0,002;0,263
20100224;0,015;0,044;-0,012;0,017;0,799
20100225;0,028;0;0,033;0,026;-0,144
20100226;-0,051;0;-0,025;0;79,019
20100301;0,046;-0,009;0,038;-0,009;-0,918
20100302;-0,056;0,003;-0,048;0;0,189
20100303;0,068;0,006;0,03;-0,016;-0,81
20100304;-0,036;0,011;0;0,029;0,192
20100305;0,057;0,008;0,04;0;-0,849
20100308;-0,016;0,017;-0,036;0,033;139,217
20100309;0,012;0,022;0,049;0,022;-0,44
20100310;0,041;-0,003;0,032;-0,003;-0,155
20100311;0;0,018;0,006;0,011;0,468
20100312;0,011;-0,008;0,005;0;-0,944
20100315;0;0;0;-0,008;-0,867
20100316;0,007;0,007;0,015;0,015;-0,272
20100317;0,008;0,018;0,004;0,004;211,514
20100318;0,019;0,009;-0,007;-0,003;-0,96
20100319;-0,051;-0,043;-0,021;-0,021;-0,191
20100322;0,005;-0,003;-0,035;-0,04;-0,751
20100323;-0,04;-0,04;-0,052;-0,052;1,078
20100324;-0,052;-0,052;-0,032;-0,017;5,261
20100325;-0,003;-0,003;0,009;0,014;-0,568
20100326;0,009;0,034;0,03;0,012;0,144
20100329;-0,006;0,068;-0,006;0,046;8,567
20100330;0,096;0,013;0,07;0,044;-0,959
20100331;0,005;0;0,027;0;5,977
20100401;0,003;0;-0,011;0,013;0,984
20100406;-0,024;-0,005;-0,008;-0,01;-0,598
20100407;-0,003;-0,002;-0,046;0;0,16
20100408;0,034;0,004;0,04;0;-0,263
20100409;-0,007;-0,007;0,033;0;0,214
20100412;0,003;0,003;-0,029;-0,029;-0,263
20100413;-0,055;-0,042;-0,041;-0,012;-0,868
20100414;-0,011;0,022;0,006;0,022;10,619
20100415;0,067;0,019;0,016;-0,028;0,235
20100416;-0,063;-0,063;-0,016;-0,017;-0,812
20100419;-0,017;-0,017;-0,045;-0,045;3,774
20100420;-0,026;0;0,003;0,029;0,452
20100421;0,006;0,006;-0,006;-0,029;-0,684
20100422;-0,014;-0,009;-0,002;0,006;-0,678
20100423;0,011;0,032;0,011;0,053;-0,124
20100426;0,053;0;0,02;-0,011;-0,382
20100427;-0,022;-0,022;-0,025;-0,022;0,714
20100428;-0,045;-0,04;-0,015;-0,037;1,521
20100429;0,071;0,065;-0,027;-0,01;-0,44
20100430;-0,078;-0,075;0;-0,017;-0,451
20100504;-0,015;-0,018;-0,018;-0,018;7,556
20100505;-0,016;0,021;0,006;0,019;-0,901
20100506;0,013;0;0,013;0,025;0,94
20100507;0;-0,024;-0,009;-0,03;0,602
20100510;0,025;0,04;0,009;0,006;0,147
20100511;-0,024;-0,027;0;0,01;16,181
20100512;0,009;-0,003;0;-0,01;-0,895
20100513;0,024;0,024;-0,034;-0,018;1,583
20100514;-0,05;-0,05;-0,029;-0,028;-0,778
20100517;-0,022;-0,022;0,007;-0,009;-0,557
20100518;0,015;0,015;-0,001;0,03;4,574
20100519;-0,026;-0,003;-0,001;-0,002;1,036
20100520;0,033;0,008;-0,009;-0,038;-0,766
20100521;-0,061;-0,061;-0,062;-0,016;-0,461
20100524;-0,02;-0,02;0,001;-0,045;4,635
20100525;-0,027;-0,02;-0,029;-0,029;-0,819
20100526;0,035;0,028;0,024;0,024;-0,204
20100527;-0,024;-0,024;-0,03;-0,03;0,263
20100528;-0,017;0,024;0,029;0,058;0,39
20100531;0,029;-0,009;0,029;0,001;-0,918
20100601;0,025;0,055;-0,001;-0,001;34,869
20100602;0,001;-0,029;0,001;0;-0,772
20100604;-0,023;0,007;0,003;0,034;-0,934
20100607;0,038;0,023;0,038;0,007;17,278
20100608;0,001;-0,015;0,001;0,001;-0,508
20100609;0,018;0,018;-0,013;-0,013;-0,063
20100610;-0,048;-0,026;-0,028;0,005;4,823
20100611;0,023;0;0,034;0;-0,932
20100614;-0,025;-0,006;-0,033;-0,032;8,897
20100615;-0,007;-0,02;0;0,006;-0,882
20100616;0,027;0,051;0;-0,007;12,53
20100617;-0,025;-0,052;0;0,003;-0,844
20100618;-0,001;-0,003;0;-0,003;-0,689
20100621;0;0;0;0;17,686
20100622;0;0;0;0;-0,258
20100623;0,034;0,034;0;0;-0,766
20100624;-0,033;-0,033;0;0;3,132
20100625;0,021;0,034;-0,003;0,034;33,295
20100628;-0,013;-0,026;0,005;-0,031;-0,992
20100629;-0,005;-0,005;-0,001;-0,001;2,822
20100630;-0,001;-0,001;0;0;-0,407
20100701;0;0;0;0;-0,974
20100702;0;0,021;0;0,021;53,396
20100705;0,021;0;0,021;0;-0,796
20100706;0,002;0,049;0,002;0,016;93,775
20100707;0,015;-0,003;0,015;0,03;-0,538
20100708;0,029;0;0,016;-0,006;-0,973
20100709;0,032;0,093;0,045;0,064;9,237
20100712;0,068;0,009;0,043;0,039;-0,346
20100713;0;0,011;0,021;0,014;1,436
20100714;0,017;0,006;0,006;0,003;-0,776
20100715;-0,003;0,006;0,012;0,009;-0,173
20100716;0,01;0,002;0,01;0,002;-0,735
20100719;-0,001;0,006;-0,007;0,003;0,847
20100720;0,006;-0,003;-0,006;-0,016;-0,07
20100721;-0,023;-0,023;-0,011;-0,009;0,925
20100722;-0,003;-0,003;-0,035;-0,004;-0,536
20100723;-0,003;0,003;0,035;0,004;-0,122
20100726;0,031;0,025;0,013;0,009;1,291
20100727;-0,008;-0,006;0,012;0,013;-0,051
20100728;0,009;0,006;0,002;0,007;0,116
20100729;0,003;0,008;0,004;0,003;0,995
20100730;-0,01;0;-0,004;-0,001;-0,849
20100802;-0,002;-0,012;-0,007;-0,006;2,353
20100803;0,011;0,007;0,017;0,006;0,165
20100804;0;0,004;-0,001;0,005;-0,709
20100805;0,006;0,002;-0,004;0,002;0,418
20100806;-0,002;-0,002;0;-0,003;4,164
20100809;-0,003;-0,003;-0,011;-0,017;-0,75
20100810;-0,003;-0,003;0,003;0,009;-0,396
20100811;-0,006;-0,006;-0,006;-0,006;0,345
20100812;-0,001;-0,001;0;-0,009;-0,19
20100813;-0,001;-0,001;-0,026;-0,016;2,354
20100816;-0,024;-0,024;0;-0,01;-0,279
20100817;-0,019;-0,01;-0,029;-0,001;-0,498
20100818;0,008;0;0,03;0;-0,814
20100819;0,026;0,026;0,026;0,026;-0,941
20100820;0,017;0,017;-0,014;-0,014;17,2
20100823;-0,042;-0,042;-0,023;-0,023;0,571
20100824;-0,011;-0,011;-0,039;-0,038;15,927
20100825;-0,043;-0,043;-0,003;-0,004;-0,926
20100826;-0,006;0,012;-0,006;0,012;10,136
20100827;0,019;0,037;0,019;0,037;-0,84
20100830;0,043;0,006;0,018;0,006;-0,708
20100831;-0,012;0,023;-0,015;0,023;26,652
20100901;0,029;-0,006;0,012;-0,007;-0,917
20100902;-0,001;-0,001;0,015;-0,004;-0,691
20100903;0;0;0,012;-0,006;5,386
20100906;0,001;0,001;0,015;0,009;-0,86
20100907;-0,005;-0,005;-0,032;-0,032;25,169
20100908;-0,035;-0,008;-0,006;0,021;-0,895
20100909;-0,003;-0,006;-0,006;-0,009;0,031
20100910;0,021;-0,003;-0,004;-0,028;5,174
20100913;-0,029;-0,029;-0,002;-0,001;0,801
20100914;-0,004;-0,004;-0,024;-0,025;-0,224
20100915;-0,034;-0,021;-0,013;-0,013;-0,204
20100916;0;0,024;0,001;0,037;-0,88
20100917;0,042;0,005;0,04;0,002;-0,833
20100920;-0,005;0,012;-0,029;0,015;84,848
20100921;0,019;0,014;0,029;0,008;-0,216
20100922;0,012;0;-0,028;0,003;1,579
20100923;-0,012;-0,012;0;-0,017;-0,642
20100924;0,006;0,006;0,003;0,013;-0,783
20100927;0;0;0,001;-0,017;-0,019
20100928;-0,005;-0,005;-0,001;-0,001;4,212
20100929;-0,013;-0,013;0;-0,005;-0,464
20100930;-0,029;0,013;0;0,018;0,658
20101001;0,056;0,012;0;-0,007;-0,582
20101004;-0,012;-0,012;-0,002;-0,018;3,093
20101005;-0,021;-0,021;0,002;0,004;-0,861
20101006;0;0,046;0;0,024;8,306
20101007;0,037;-0,009;0,055;0,008;-0,999
20101008;-0,009;0,003;-0,011;0,007;93
20101011;0,021;0,009;-0,032;-0,003;-0,48
20101012;-0,009;-0,009;-0,01;-0,035;3,364
20101013;-0,055;-0,029;0,004;0,002;-0,661
20101014;0,03;0,002;-0,003;-0,001;3,868
20101015;-0,011;-0,011;0,022;-0,001;-1
20101018;0,001;0,001;-0,022;-0,004;4670
20101019;-0,005;-0,005;0;0;-0,241
20101020;0;0;0;-0,018;11,114
20101021;-0,018;0;-0,009;0,015;-0,871
20101022;0,015;-0,004;0,009;-0,001;-0,849
20101025;0;0;-0,013;-0,026;1,172
20101026;-0,015;-0,015;0;0,012;-0,414
20101027;0;0,001;0,001;0,001;2,077
20101028;0,009;0,008;0,006;0,008;-0,827
20101029;0;0;-0,006;0;1,392
20101102;0,004;0,019;0,022;0,007;1,693
20101103;0,019;0,034;0,021;0,046;0,88
20101104;0,041;0,021;0,031;0,021;-0,496
20101105;0,013;0,003;-0,001;-0,012;-0,649
20101108;-0,014;-0,006;-0,024;-0,032;1,749
20101109;-0,005;0,035;0,028;0,062;7,245
20101110;0,102;0,07;0,081;0,055;1,328
20101112;-0,016;-0,03;-0,022;-0,016;-0,902
20101115;-0,011;-0,016;0,01;-0,001;-0,786
20101116;-0,001;-0,001;-0,013;-0,01;6,592
20101117;-0,02;-0,015;-0,006;-0,008;-0,876
20101118;-0,001;0,011;-0,011;0,003;0,732
20101119;0,008;-0,008;0,011;-0,007;0,367
20101122;-0,004;0,002;-0,006;-0,004;-0,71
20101123;-0,008;-0,015;-0,042;-0,016;2,631
20101124;0,01;0,022;0,056;0,03;2,383
20101125;0,028;0,016;0;-0,004;-0,227
20101126;-0,022;-0,022;-0,004;0,006;0,034
20101129;0,012;0,02;0,007;-0,003;-0,888
20101130;-0,014;-0,023;-0,027;-0,003;1,525
20101201;0;0;-0,02;-0,014;126,998
20101202;-0,004;0,003;0,031;0,007;-0,993
20101203;-0,004;-0,006;0,007;0,007;-0,56
20101206;0,006;0,008;0;-0,006;1,561
20101207;0,006;-0,003;0,003;0,001;-0,502
20101208;-0,006;-0,006;-0,009;-0,009;-0,683
20101209;-0,006;-0,006;-0,004;-0,001;-0,115
20101210;-0,012;-0,011;-0,022;-0,017;16,877
20101213;-0,011;-0,011;0,009;0,001;-0,931
20101214;0,006;0,029;-0,003;0,031;2,813
20101215;0,034;0,011;0,015;-0,019;3,517
20101216;-0,03;-0,016;-0,003;0,014;-0,831
20101217;0,014;0;0;-0,014;0,052
20101220;-0,011;-0,007;-0,004;0,007;-0,274
20101221;0,006;0,001;0,004;-0,007;3,796
20101222;-0,002;-0,002;-0,006;0,005;-0,365
20101223;-0,001;-0,001;-0,001;-0,012;-0,721
20101227;0;0;-0,004;0,002;-0,767
20101228;-0,02;0;-0,001;0,011;7,949
20101229;0,02;0;0,009;-0,001;0,101
20101230;0;0,025;0,011;0,026;5,894
20101231;0,025;0,016;0,022;0,015;0,524
20110103;0,017;-0,001;-0,019;-0,009;-0,919
20110104;-0,011;-0,011;0,011;-0,005;-0,549
20110105;-0,008;0,001;-0,008;0,005;0,914
20110107;0,002;0;0,018;-0,003;-0,103
20110110;0,018;0,011;-0,004;-0,008;0,242
20110111;-0,024;-0,024;-0,011;-0,006;-0,571
20110112;-0,007;-0,003;0,001;0;1,563
20110113;0,004;0,006;-0,001;-0,006;-0,282
20110114;-0,006;-0,006;-0,036;-0,034;1,818
20110117;-0,032;-0,026;0,004;0,006;1,239
20110118;0,018;0,007;0;-0,005;-0,5
20110119;-0,013;-0,014;-0,047;-0,019;0,196
20110120;-0,024;-0,015;0,018;0,006;-0,784
20110121;0,001;0,012;0,012;0,012;0,38
20110124;0,02;0;0,003;-0,011;-0,406
20110125;-0,014;-0,002;-0,002;-0,006;1,921
20110126;-0,006;-0,017;-0,004;0;-0,053
20110127;-0,008;0,016;-0,005;0,005;1,134
20110128;0,014;0,002;0,014;0,006;0,538
20110131;-0,047;-0,01;-0,047;-0,007;-0,57
20110201;0,055;0,002;0,028;-0,001;-0,158
20110202;-0,006;0,009;0,01;0,001;0,886
20110203;-0,009;-0,001;0,001;-0,005;-0,779
20110204;0,004;-0,018;0,004;0;0,042
20110207;0,006;0,055;0,006;0,056;1,455
20110208;0,053;0,003;0,044;-0,005;-0,85
20110209;-0,008;-0,008;-0,037;-0,015;6,441
20110210;-0,015;0;0,006;0,014;-0,352
20110211;-0,009;-0,003;-0,035;-0,003;1,447
20110214;0,026;0,006;0,033;-0,007;-0,658
20110215;-0,001;-0,001;0,012;-0,012;-0,519
20110216;-0,027;-0,027;-0,012;-0,012;-0,294
20110217;-0,017;-0,009;-0,011;0;2,699
20110218;0,003;0;0,002;0;-0,43
20110221;-0,002;-0,001;0,001;-0,003;1,549
20110222;0,005;0,001;0,005;0;0,081
20110223;0;0,02;0;0,015;25,82
20110224;0,023;0,013;0,023;0,014;-0,991
20110225;0,006;-0,007;0,002;-0,003;-0,852
20110228;0;0;-0,01;0,002;29,248
20110301;-0,001;-0,001;-0,005;-0,01;-0,755
20110302;-0,002;0,011;0,005;0,021;15,301
20110303;0,011;0,007;0,003;0,007;1,626
20110304;0,006;0,013;0,025;0,013;-0,644
20110307;0,017;0,014;0,003;0,007;4,845
20110308;0,016;0,007;0,019;0,005;-0,858
20110309;-0,003;-0,004;-0,001;0,001;0,269
20110310;-0,003;-0,005;-0,015;-0,016;-0,904
20110311;-0,018;-0,018;-0,019;-0,023;0,731
20110314;-0,022;-0,003;-0,001;0,017;-0,373
20110315;-0,004;0,013;-0,004;0,013;-0,041
20110316;0,045;0,007;0,039;0,002;-0,584
20110317;0,002;0,002;0;0;1,098
20110318;0;0;-0,009;-0,009;-0,273
20110321;-0,024;-0,014;-0,008;0,003;-0,927
20110322;0,018;0,027;0,018;0,018;158,306
20110323;0,013;-0,007;0,007;0,001;-0,938
20110324;0,002;0,002;-0,011;-0,016;2,579
20110325;-0,018;-0,012;-0,016;0,005;2,139
20110328;0,005;0,003;0,02;-0,003;-0,835
20110329;0,002;-0,001;-0,016;0,005;4,292
20110330;0,001;0;0,019;-0,002;-0,695
20110331;-0,003;-0,003;-0,018;-0,008;-0,001
20110401;0;0;0,001;0,004;-0,487
20110404;-0,002;-0,002;-0,03;-0,015;-0,16
20110405;-0,044;-0,028;0;-0,017;1,838
20110406;0,003;0,001;-0,005;0,006;-0,344
20110407;0,024;0,01;0,022;0;-0,902
20110408;-0,016;-0,003;-0,011;0;4,889
20110411;-0,006;-0,007;-0,005;-0,016;4,25
20110412;-0,006;-0,015;-0,018;-0,006;1,923
20110413;-0,005;0,011;0;-0,006;-0,817
20110414;-0,001;-0,019;-0,015;0,003;0,613
20110415;0,009;0,009;0,015;-0,008;25,967
20110418;-0,02;-0,011;-0,028;0,008;-0,983
20110419;0,006;0,006;0,035;0,006;-0,803
20110420;0,008;0;0;-0,006;0,377
20110421;0,003;0,002;-0,014;-0,017;1,263
20110426;-0,025;-0,025;-0,023;-0,015;1,747
20110427;-0,009;-0,009;0,014;0,005;-0,793
20110428;-0,001;0;-0,022;-0,022;0,125
20110429;-0,017;-0,018;-0,03;-0,001;0,155
20110502;0,017;0,017;0,03;0;-0,172
20110504;-0,017;-0,017;-0,006;-0,006;0,502
20110505;-0,007;-0,007;-0,006;-0,006;-0,846
20110506;-0,014;-0,015;-0,018;-0,018;26,628
20110509;-0,015;-0,015;-0,015;0;-0,318
20110510;0,001;0,001;-0,02;-0,006;4,672
20110511;-0,014;-0,012;0,022;-0,005;-0,994
20110512;0;0,011;0;-0,002;4,324
20110513;0,007;-0,006;-0,068;-0,062;9,499
20110516;-0,12;-0,088;-0,056;-0,051;0,802
20110517;0,006;-0,024;-0,007;-0,012;-0,393
20110518;0,005;0;-0,002;-0,004;0,746
20110519;-0,015;-0,015;-0,03;-0,034;-0,54
20110520;-0,049;-0,025;-0,007;0,011;-0,767
20110523;0,017;0,001;0,017;0,004;0,458
20110524;0,004;-0,004;0,001;0;-0,96
20110525;0;0,003;0,003;0,003;16,778
20110526;0,004;0,001;-0,005;-0,008;0,315
20110527;-0,011;0;-0,002;0,009;-0,618
20110530;0,016;0,026;0,007;-0,004;0,723
20110531;-0,004;-0,025;0;0;-0,832
20110601;0,004;0,004;0;0,003;5,962
20110602;-0,004;0;0,004;0,004;-0,697
20110603;0,004;0,003;0,004;0;1,16
20110606;0;0,019;-0,003;0,022;-0,247
20110607;0,022;0;0,001;0;0,172
20110608;0,002;0,027;0,025;0,014;12,522
20110609;0,012;0;0,014;0,013;-0,959
20110610;0,018;0,006;-0,006;0,006;12,959
20110613;0;0,005;0,013;-0,004;-0,737
20110614;-0,001;-0,006;-0,002;-0,003;-0,177
20110615;-0,003;-0,003;-0,021;-0,021;3,166
20110616;-0,025;-0,025;-0,022;-0,021;-0,46
20110617;-0,014;-0,014;0;-0,007;2,55
20110620;-0,014;-0,014;-0,022;-0,018;-0,949
20110621;-0,018;-0,018;-0,079;-0,03;3,937
20110622;-0,028;-0,028;0,002;-0,035;1,068
20110624;-0,052;-0,045;-0,08;-0,075;0,013
20110627;-0,06;-0,068;-0,071;-0,078;0,474
20110628;-0,049;-0,031;0,009;0,008;-0,689
20110629;-0,022;-0,028;0,01;0,005;2,682
20110630;0,023;0,056;0,022;0,018;-0,729
20110701;0,009;-0,009;-0,005;-0,009;2,639
20110704;-0,009;-0,035;-0,041;-0,028;-0,681
20110705;-0,029;-0,027;-0,019;-0,018;-0,324
20110706;-0,026;-0,028;-0,003;-0,005;0,344
20110707;-0,01;-0,005;0,008;-0,005;-0,604
20110708;0;-0,005;-0,01;-0,002;-0,632
20110711;-0,002;-0,002;-0,01;-0,018;11,803
20110712;-0,018;-0,018;-0,01;-0,01;-0,631
20110713;0,001;0,016;0;0;4,165
20110714;-0,039;-0,028;-0,029;-0,029;7,119
20110715;-0,012;-0,037;-0,022;-0,022;-0,98
20110718;-0,033;-0,021;-0,053;-0,032;1,074
20110719;-0,009;-0,021;-0,026;-0,037;-0,481
20110720;-0,065;-0,038;-0,04;-0,001;58,768
20110721;0,033;0,003;0,002;0,001;-0,948
20110722;-0,002;-0,002;0,037;-0,009;-0,66
20110725;-0,012;0,002;0;0,011;-0,619
20110726;0,011;-0,003;-0,002;-0,005;-0,616
20110727;-0,001;-0,001;-0,014;-0,025;5,636
20110728;-0,025;-0,005;-0,023;0,021;4,18
20110729;0,015;-0,006;0,012;-0,006;-0,824
20110801;0;0,091;0,028;0,04;9,793
20110802;0,04;-0,021;0,04;0;-0,873
20110803;-0,011;-0,036;-0,038;-0,027;-0,175
20110804;-0,018;-0,019;-0,086;-0,096;-0,095
20110805;-0,123;-0,123;-0,072;-0,041;0,965
20110808;-0,084;-0,052;-0,05;-0,074;0,866
20110809;0;-0,007;-0,034;0;0,497
20110810;0,013;0,034;0,056;0,041;-0,775
20110811;0,015;0,033;0,015;0,015;1,893
20110812;0,068;0,026;0,068;0,067;2,328
20110816;0,128;0,1;0,09;0,075;-0,748
20110817;-0,023;-0,015;0,012;0;-0,719
20110818;0;-0,008;-0,099;-0,099;2,176
20110819;-0,099;-0,099;-0,058;-0,006;-0,262
20110822;0,019;0,032;0,075;0,026;9,962
20110823;0,023;0,01;-0,019;0;-0,589
20110824;-0,011;-0,011;-0,005;-0,015;-0,988
20110825;-0,024;-0,024;-0,004;0,003;3,371
20110826;0;0;0,018;0;25,847
20110829;0,013;0,013;0,015;0,013;-0,957
20110830;0,013;0,018;0;0;94,097
20110831;0;-0,005;-0,013;-0,014;-0,991
20110901;-0,036;-0,036;-0,017;-0,012;1,079
20110902;-0,001;-0,001;-0,043;-0,045;-0,266
20110905;-0,091;-0,091;-0,079;-0,068;2,012
20110906;-0,05;-0,037;-0,022;-0,016;-0,653
20110907;-0,006;0,009;0,002;0,007;0,587
20110908;0,02;0,037;0,02;0,019;-0,326
20110909;0,027;0,006;0,027;0,025;-0,902
20110912;0;-0,024;-0,052;-0,055;26,713
20110913;-0,03;-0,03;-0,006;-0,012;-0,821
20110914;-0,018;-0,018;0;-0,015;-0,885
20110915;-0,011;-0,011;-0,049;-0,018;250,129
20110916;-0,018;-0,018;-0,032;-0,047;-0,647
20110919;-0,041;-0,041;0,008;-0,005;-0,808
20110920;-0,013;-0,01;0,002;0,002;7,79
20110921;0,007;0,003;-0,012;-0,013;-0,871
20110922;-0,028;-0,026;-0,035;-0,037;2,603
20110923;-0,039;-0,04;-0,031;-0,014;0,506
20110926;-0,035;-0,018;-0,089;-0,03;4,074
20110927;0,011;-0,007;0,043;-0,018;-0,86
20110928;-0,025;-0,014;0,015;0,006;0,701
20110929;0,006;-0,005;-0,019;-0,02;-0,851
20110930;-0,018;-0,018;-0,017;-0,009;-0,462
20111003;-0,009;-0,009;-0,038;-0,055;18,895
20111004;-0,057;-0,055;-0,02;-0,002;-0,859
20111005;0;0,026;0,01;0,018;17,488
20111006;0,03;0,008;0,008;0,012;-0,553
20111007;0,027;0,021;0,024;0;-0,624
20111010;-0,019;-0,019;-0,002;0,002;-0,367
20111011;-0,008;0,002;-0,012;-0,006;2,639
20111012;0,01;0,025;0,01;-0,004;11,518
20111013;-0,015;0;0,002;0;-0,495
20111014;0,029;0,069;0,031;0,115;-0,654
20111017;0,102;0,228;0,102;0,077;0,21
20111018;0,057;-0,123;-0,019;-0,067;-0,32
20111019;-0,064;-0,039;-0,021;-0,014;-0,472
20111020;-0,026;-0,051;-0,03;-0,014;9,518
20111021;0,005;0,045;-0,007;0,05;-0,864
20111024;0,046;0,034;0,08;0,034;-0,55
20111025;0,034;0,015;-0,005;-0,046;-0,323
20111026;-0,048;-0,05;-0,017;-0,017;-0,649
20111027;-0,017;0,072;0,005;0,086;79,202
20111028;0,133;0,037;0,074;-0,006;-0,866
20111031;-0,04;-0,043;-0,02;-0,011;-0,791
20111102;-0,053;-0,031;-0,067;-0,041;2,162
20111103;-0,02;0,015;0,027;0,052;-0,207
20111104;0,077;0,015;0,035;0,005;-0,666
20111107;-0,008;0,002;0,025;-0,005;-0,407
20111108;-0,007;-0,006;-0,016;0;3,092
20111109;0;-0,01;-0,017;-0,033;0,501
20111110;-0,051;-0,049;-0,019;-0,017;-0,788
20111114;0,028;0,026;0,005;0,003;0,971
20111115;-0,057;-0,057;-0,074;-0,055;3,859
20111116;-0,027;-0,027;0,004;-0,011;-0,669
20111117;0;0;-0,018;-0,002;-0,783
20111118;0,015;0,015;-0,036;-0,057;2,759
20111121;-0,079;-0,079;-0,049;-0,049;0,112
20111122;-0,045;-0,033;-0,074;-0,072;-0,108
20111123;-0,088;-0,047;-0,111;-0,018;5,535
20111124;0;-0,055;0,102;-0,004;-0,99
20111125;0;0;-0,009;-0,007;-0,313
20111128;-0,009;-0,009;-0,084;-0,041;79,259
20111129;-0,055;-0,002;0,035;0,043;2,956
20111130;0,055;0,025;0,017;0,023;-0,922
20111201;0,025;0,022;-0,005;-0,022;0,792
20111202;-0,029;-0,05;0,012;-0,016;-0,723
20111205;-0,009;-0,007;-0,021;-0,028;30,614
20111206;-0,03;-0,009;0,01;0,021;-0,975
20111207;0,024;0;-0,036;-0,021;17,446
20111208;-0,021;-0,021;-0,012;-0,036;-0,881
20111209;-0,036;-0,021;-0,05;0,017;0,37
20111212;-0,002;0,012;0,066;0,012;22,851
20111213;0,037;0,031;0,037;0,029;-0,946
20111214;0,024;0,019;0,005;0,002;-0,299
20111215;0,012;-0,007;0,007;0;0,609
20111216;-0,002;0,007;-0,002;0;-0,397
20111219;0,002;0;0,009;-0,005;0,044
20111220;0;-0,007;0,007;0,016;0,201
20111221;0,018;0,018;0,021;0,014;0,054
20111222;0;0,014;0;0,009;-0,488
20111223;0,016;0,002;0,014;0,002;-0,894
20111227;-0,011;-0,011;-0,022;-0,013;8,049
20111228;-0,011;-0,011;0,002;0;-0,204
20111229;-0,007;0;-0,005;0;0,158
20111230;0,007;0;0,009;0;-0,661
20120102;-0,005;-0,005;-0,007;-0,009;-0,385
20120103;-0,005;0,002;-0,014;0,007;3,205
20120104;0,007;0;-0,007;-0,027;-0,647
20120105;-0,02;-0,005;-0,012;0,005;0,125
20120109;0,016;0;0,031;0,019;-0,107
20120110;0;0,027;0,005;0,025;-0,348
20120111;0,025;0,073;0,023;0,076;18,507
20120112;0,071;0,077;0,074;0,056;-0,243
20120113;0,06;0,01;0,042;-0,018;-0,56
20120116;-0,02;-0,029;-0,002;0,016;-0,68
20120117;0,02;0,084;0,02;0,083;4,118
20120118;0,139;0,065;0,124;0,06;0,513
20120119;0,005;0,015;0,017;0,002;-0,213
20120120;0,002;-0,013;-0,021;-0,024;-0,627
20120123;-0,033;-0,041;-0,07;-0,011;0,178
20120124;-0,007;0,087;0,055;0,089;2,375
20120125;0,094;0,067;0,098;0,067;-0,577
20120126;0,107;0,069;0,104;0,05;0,449
20120127;0,016;0,021;0,018;0,039;0,344
20120130;0,023;0,007;0,022;0,007;-0,636
20120131;0,017;0,025;0,013;0,014;3,106
20120201;0,015;-0,011;-0,02;-0,008;-0,423
20120202;-0,014;0;0,029;0,008;7,787
20120203;0,004;0,008;-0,014;0;-0,864
20120206;-0,011;0,003;0,007;-0,001;-0,686
20120207;0,02;-0,004;-0,01;-0,012;-0,475
20120208;-0,003;-0,001;0,027;0,015;1,158
20120209;0,006;-0,004;-0,017;-0,008;0,675
20120210;-0,005;-0,005;-0,02;-0,01;-0,24
20120213;-0,014;0,059;0,023;0,072;1,738
20120214;0,12;0,043;0,024;-0,014;-0,193
20120215;-0,055;0,006;0,034;0,065;0,091
20120216;0,063;-0,001;0,034;-0,01;0,728
20120217;0,004;0,078;0,031;0,025;2,973
20120220;0,06;0,022;0,051;0,072;-0,933
20120221;0,035;0,001;-0,033;-0,065;0,734
20120222;-0,078;-0,079;-0,051;-0,027;0,134
20120223;-0,035;0,018;0,014;0,025;-0,136
20120224;0,037;-0,006;0,018;-0,018;-0,101
20120227;-0,013;-0,025;-0,016;-0,007;-0,897
20120228;-0,012;-0,012;-0,001;-0,01;-0,359
20120229;-0,054;-0,048;-0,097;-0,096;14,39
20120301;-0,086;-0,005;-0,038;0,049;33,2
20120302;0,064;-0,009;0,07;-0,001;-0,973
20120305;0,014;0,009;0,003;-0,008;2,501
20120306;-0,003;-0,018;-0,035;-0,04;0,068
20120307;-0,032;-0,017;-0,008;0,024;-0,95
20120308;0,015;0,025;0,033;0,023;1,922
20120309;0,023;-0,001;0,01;-0,009;-0,533
20120312;-0,009;-0,009;-0,027;-0,027;-0,603
20120313;-0,02;-0,02;0;0;2,569
20120314;-0,007;0,017;0,007;0;0,165
20120315;0;-0,016;0;0;0,585
20120316;-0,017;-0,023;-0,069;-0,065;0,263
20120319;-0,027;-0,013;0,015;0,039;3,76
20120320;-0,006;0;0;0;-0,956
20120321;-0,007;-0,027;-0,044;-0,056;4,78
20120322;-0,022;-0,022;-0,018;-0,02;-0,556
20120323;-0,059;-0,001;-0,019;0,017;1,069
20120326;0,051;-0,009;0,022;-0,006;-0,107
20120327;-0,005;0,015;0,023;0,021;7,445
20120328;0,021;0,036;0,02;0,036;-0,978
20120329;0,016;0,012;0,01;0,01;0,163
20120330;0,037;0,007;0,004;-0,003;-0,092
20120402;-0,01;-0,009;0,022;0,003;-0,051
20120403;0;-0,001;-0,019;-0,027;-0,817
20120404;-0,019;-0,019;-0,074;-0,056;17,797
20120405;-0,08;-0,038;0;0;2,465
20120410;0;-0,023;-0,048;-0,051;-0,803
20120411;-0,073;-0,054;-0,027;0;-0,015
20120412;0,043;0;0,027;-0,003;-0,835
20120413;0;0,002;0;-0,012;87,474
20120416;0,003;0,015;0,018;0,03;-0,995
20120417;-0,002;0,019;-0,002;-0,013;5,367
20120418;0,002;0,025;0,002;0,049;0,495
20120419;0,061;0,029;0,061;0,016;10,042
20120420;0,029;0,001;-0,002;0,012;-0,995
20120423;-0,019;-0,019;-0,088;-0,064;46,769
20120424;-0,142;-0,008;-0,049;0,054;0,098
20120425;0,107;-0,029;0,068;-0,077;6,722
20120426;-0,037;-0,051;-0,065;-0,06;-0,92
20120427;-0,07;0,002;-0,009;0,064;26,261
20120430;0,079;0,025;0,081;0,018;-0,997
20120502;0,025;0,008;0,007;0;23,626
20120504;0,002;-0,002;0,013;0,013;0,382
20120507;-0,01;-0,013;-0,047;-0,029;-0,934
20120508;-0,005;-0,005;0,012;-0,017;42,592
20120509;-0,023;-0,023;-0,015;-0,014;-0,986
20120510;-0,022;-0,019;-0,021;-0,003;0,622
20120511;-0,022;0,002;-0,004;-0,017;75,329
20120514;0,005;-0,022;-0,014;-0,004;-0,869
20120515;0;0;0,009;-0,007;-0,988
20120516;-0,032;-0,032;-0,096;-0,06;72,147
20120517;-0,067;-0,067;-0,035;-0,072;-0,531
20120518;-0,045;0,029;-0,049;0,075;14,755
20120521;0,069;0,132;0,124;0,132;-0,739
20120522;0,139;0,027;0,137;-0,002;-0,457
20120523;-0,013;-0,041;-0,03;-0,03;-0,021
20120524;-0,019;-0,019;-0,034;-0,034;-0,701
20120525;-0,021;-0,021;-0,018;-0,018;-0,053
20120528;-0,032;-0,032;-0,036;-0,009;-0,603
20120529;0;0;0,006;-0,022;1,403
20120530;-0,02;-0,02;-0,049;-0,043;2,436
20120531;-0,072;-0,072;-0,067;-0,02;0,352
20120601;-0,01;0,044;0,025;-0,01;1,326
20120604;-0,004;-0,056;-0,062;-0,057;-0,046
20120605;-0,083;-0,063;-0,04;-0,051;0,173
20120606;-0,022;-0,043;-0,016;-0,029;-0,913
20120608;-0,038;0,043;-0,012;0,072;1,782
20120611;0,085;0,054;0,082;0,041;-0,563
20120612;0,041;0,031;0,043;0,025;1,875
20120613;0,042;0,078;0,042;0,098;-0,165
20120614;0,08;0,093;0,08;0,089;-0,315
20120615;0,102;0,051;0,091;0,053;1,795
20120618;0,042;0;0,051;0;-0,626
20120619;0;0;-0,015;-0,002;-0,858
20120620;-0,003;-0,003;-0,066;-0,078;0,54
20120621;-0,078;-0,065;-0,061;-0,061;2,887
20120622;-0,053;-0,064;-0,065;-0,05;0,342
20120625;-0,074;-0,076;-0,038;-0,053;-0,488
20120626;-0,038;0,014;-0,027;0,035;0,438
20120627;0,081;0,043;0,045;-0,018;0,264
20120628;-0,06;-0,015;-0,059;-0,045;3,679
20120629;-0,039;-0,098;-0,085;-0,092;1,203
20120702;-0,1;-0,1;-0,126;-0,104;-0,277
20120703;-0,092;-0,078;-0,06;-0,068;-0,041
20120704;-0,076;-0,09;-0,032;-0,025;-0,663
20120705;-0,025;0,039;0,024;0,07;7,297
20120706;0,066;0,051;0,076;0,035;-0,808
20120709;0,027;0,028;0,019;0,044;-0,593
20120710;0,084;0,03;0,037;-0,002;-0,691
20120711;-0,034;-0,034;-0,051;-0,058;6,008
20120712;-0,068;-0,068;-0,027;-0,037;0,572
20120713;-0,016;-0,003;0,008;0,017;-0,894
20120716;0,014;0,003;0,003;0;0,542
20120717;-0,003;-0,005;-0,011;-0,008;-0,337
20120718;-0,022;0,038;0;0,049;1,187
20120719;0,064;0,003;0,028;-0,031;-0,872
20120720;-0,034;-0,034;-0,014;-0,008;-0,322
20120723;-0,027;-0,022;-0,041;-0,014;6,141
20120724;0,006;0;0,006;-0,006;-0,92
20120725;-0,025;-0,006;0,003;0;5,088
20120726;0,02;0,006;-0,031;-0,028;1,638
20120727;-0,019;-0,011;0,006;0,02;-0,316
20120730;0,009;0;0,035;0,003;-0,972
20120731;0,006;0;-0,045;-0,022;43,788
20120801;-0,028;-0,028;-0,074;-0,04;2,971
20120802;-0,034;0,049;0,048;0;0,126
20120803;0,03;-0,052;-0,045;-0,024;0,036
20120806;-0,055;-0,055;0,038;-0,003;-0,969
20120807;0;0,049;0;0,049;-0,555
20120808;0,058;0,047;0,049;0,029;7,205
20120809;0,02;-0,017;0,029;0;-1
20120810;0;0;0;0;0
20120813;-0,014;0,014;-0,014;0,014;1644
20120814;0,026;-0,003;-0,011;-0,039;-0,785
20120816;-0,036;-0,031;0;0,006;0,508
20120817;0,009;0,003;0,009;0,003;-0,779
20120820;0,017;0,017;-0,017;0,003;27,11
20120821;-0,011;-0,011;-0,006;0,003;-0,674
20120822;0,011;0,011;0,012;0,003;3,094
20120823;-0,009;0,009;0,003;0,017;-0,893
20120824;0,017;0,039;0,035;0,039;11,462
20120827;0,048;0,008;0,011;-0,003;0,492
20120828;-0,04;-0,024;-0,028;-0,027;-0,203
20120829;0,006;-0,011;-0,017;0,003;-0,402
20120830;0;0,011;0,017;-0,003;-0,659
20120831;-0,028;-0,014;-0,043;-0,011;7,486
20120903;0,014;-0,011;0,045;0;-0,763
20120904;0,008;0,008;0,009;-0,006;-0,986
20120905;-0,087;-0,036;-0,074;-0,028;246,341
20120906;0,046;0,003;0,012;0;-0,604
20120907;-0,006;0,049;0,027;0,017;0,663
20120910;0,029;0,022;0,029;0,032;2,574
20120911;0,029;-0,013;-0,006;-0,006;-0,908
20120912;-0,003;-0,008;0,032;0,006;-0,682
20120913;0,003;-0,008;0,003;0;-0,927
20120914;-0,014;0,003;-0,022;0;287,765
20120917;0,017;0;0;-0,003;-0,976
20120918;-0,003;-0,003;-0,006;-0,02;3,144
20120919;-0,028;0;-0,031;0,009;32,115
20120920;0,014;-0,014;-0,027;-0,062;-0,691
20120921;-0,062;-0,031;0,009;0,033;-0,432
20120924;0,048;0,041;0,048;0,032;-0,134
20120925;0,02;-0,006;0,003;0,003;-0,664
20120926;0,011;0,011;0;0,008;1,017
20120927;-0,003;0,053;0,003;0,056;-0,246
20120928;0,056;0;0,051;-0,026;1,121
20121001;-0,026;-0,018;-0,005;0,003;9,972
20121002;-0,008;0,011;-0,003;0;-0,96
20121003;0,011;-0,016;-0,022;-0,003;-0,45
20121004;-0,003;-0,003;-0,02;-0,014;1,17
20121005;-0,008;-0,008;0,026;0;-0,723
20121008;-0,005;0,005;0,008;0,011;-0,036
20121009;0,011;0,06;0,014;0,005;7,216
20121010;0,019;-0,038;-0,019;0;-0,919
20121011;-0,013;-0,011;0,017;0;0,945
20121012;-0,008;0,022;0;0;8,984
20121015;0,008;-0,024;0,003;0;1,157
20121016;0;0;-0,019;-0,003;-0,755
20121017;-0,003;0;0;0,003;-0,651
20121018;0,003;0;0,011;0;0,202
20121019;0,005;0,005;0,005;-0,008;6,826
20121022;-0,005;-0,005;0;0,008;-0,879
20121023;-0,008;-0,003;-0,022;-0,014;0,833
20121024;-0,019;-0,014;-0,02;-0,025;-0,534
20121025;-0,008;-0,019;0,014;0,003;-0,977
20121026;-0,006;0,006;-0,02;0,006;34,387
20121029;0,014;0,003;-0,023;-0,036;2,304
20121030;-0,05;-0,019;-0,035;0,02;0,608
20121031;0,032;0,048;0,064;0,031;-0,935
20121102;0,031;0;-0,011;-0,025;5,494
20121105;-0,03;-0,008;0,017;0,011;-0,607
20121106;0,028;-0,011;0,006;0,003;3,552
20121107;0;0,008;0,011;0;-0,743
20121108;-0,014;-0,008;-0,003;0;0,667
20121109;0;0;0;-0,006;-0,135
20121112;0,006;-0,008;0,003;0,003;-0,825
20121113;-0,014;0,006;-0,064;-0,011;10,076
20121114;-0,037;-0,019;0;0;-0,264
20121115;0,023;-0,003;-0,051;-0,037;1,187
20121116;-0,08;-0,037;0,009;-0,029;-0,719
20121119;0,05;-0,009;0,05;0,018;-0,927
20121120;0,009;0,03;0,006;0,027;34,097
20121121;0,021;0,003;0;0;-0,769
20121122;0,006;0,003;0,015;0,006;0,452
20121123;-0,003;-0,003;-0,012;0;-0,799
20121126;0;0;-0,003;-0,003;3,92
20121127;-0,026;-0,011;0;-0,009;-0,377
20121128;0,012;-0,003;-0,035;-0,023;3,577
20121129;-0,02;0,012;-0,034;-0,059;0,623
20121130;-0,036;0;0,025;0,088;-0,376
20121203;0,071;0,034;0,052;0,043;-0,144
20121204;0,029;-0,006;0,018;-0,014;-0,479
20121205;-0,008;0,003;-0,014;0,011;0,57
20121206;0,011;0;0;-0,006;-0,601
20121207;-0,006;0,003;-0,003;-0,006;1,049
20121210;0;0;0,023;0,006;-0,755
20121211;0,003;-0,006;0,006;0,003;-0,251
20121212;0;0;-0,031;-0,008;10,648
20121213;-0,008;0,087;0,012;0,096;29,603
20121214;0,099;0,072;0,13;0,026;-0,927
20121217;0,049;-0,019;-0,031;-0,033;-0,144
20121218;-0,044;-0,044;-0,005;-0,016;-0,851
20121219;-0,02;-0,003;0,019;0,024;-0,5
20121220;0,016;0;-0,008;-0,008;6,298
20121221;-0,015;-0,018;0;-0,016;-0,941
20121227;-0,008;0;-0,053;0,005;38,788
20121228;0,005;0,018;0,039;0,021;1,296
20130102;0,018;-0,003;0,003;-0,015;-0,984
20130103;-0,026;-0,01;-0,013;-0,01;89,859
20130104;0,003;-0,013;0,005;-0,005;-0,987
20130107;-0,013;-0,005;-0,005;-0,011;1,071
20130108;-0,003;-0,011;-0,027;-0,013;-0,304
20130109;-0,011;-0,005;0,025;0,005;18,816
20130110;0,014;0,019;0,003;-0,003;-0,678
20130111;-0,013;-0,008;0;0,014;0,863
20130114;0,008;0,003;0,008;0;-0,175
20130115;0,005;-0,003;-0,029;-0,019;-0,372
20130116;-0,021;-0,008;0,006;0,014;-0,394
20130117;0,011;0,008;0,008;0,005;-0,687
20130118;0,013;0;0,016;0,003;106,004
20130121;0,005;0,213;0,013;0,149;0,757
20130122;0,127;-0,057;0,103;-0,025;-0,958
20130123;-0,005;-0,012;-0,01;-0,005;-0,332
20130124;-0,031;0,045;-0,005;0,038;8,608
20130125;0,058;-0,02;0,034;-0,007;-0,899
20130128;-0,007;0,053;0,009;0,046;4,553
20130129;0,053;0;0,033;0,007;-0,363
20130130;0,002;0,035;-0,018;-0,007;5,189
20130131;-0,015;-0,053;-0,034;-0,022;-0,785
20130201;-0,042;-0,027;-0,014;-0,034;-0,598
20130204;-0,035;-0,002;-0,036;0,002;1,374
20130205;0,031;0,005;0,06;0,021;-0,782
20130206;0,023;0,005;0,017;-0,009;-0,16
20130207;-0,014;0;-0,019;-0,012;0,757
20130208;-0,009;-0,027;-0,021;0;0,338
20130211;0,005;0,044;0,039;0,026;-0,252
20130212;0,021;0,004;0,021;0,016;8,679
20130213;0,02;0,02;0;-0,009;-0,668
20130214;-0,013;-0,022;0;-0,007;0,369
20130215;0;0;0;0,014;-0,762
20130218;0,007;0,038;0,016;0,045;6,247
20130219;0,045;0,047;0,027;0,047;-0,482
20130220;0,054;0,006;0,018;-0,045;-0,675
20130221;-0,071;-0,031;-0,03;0,017;0,35
20130222;0,033;0,013;0,042;0,013;0,662
20130225;0,017;0,027;0,017;0,023;0,238
20130226;0,025;0,045;0,025;0,037;-0,081
20130227;0,037;-0,002;-0,008;-0,022;-0,482
20130228;-0,033;-0,019;0,01;0;-0,428
20130301;-0,006;-0,014;-0,006;0,002;-0,653
20130304;0,023;0,002;-0,018;-0,036;5,834
20130305;-0,03;-0,03;-0,025;-0,021;-0,666
20130306;-0,027;-0,006;0,009;0,021;0,025
20130307;0,017;0,015;0,017;-0,002;-0,28
20130308;0;-0,018;-0,046;-0,01;1,985
20130311;0,021;0,021;0,028;0,002;-0,399
20130312;-0,027;-0,018;-0,002;-0,013;-0,467
20130313;-0,013;-0,013;-0,068;-0,015;6,406
20130314;-0,023;-0,03;0,021;-0,009;-0,739
20130315;-0,009;0,022;-0,009;-0,007;1,813
20130318;0,029;0,009;0,057;0,042;-0,884
20130319;-0,002;0;-0,004;-0,006;2,873
20130320;0,009;0;0,013;0,002;-0,404
20130321;-0,002;-0,008;-0,055;-0,019;-0,569
20130322;-0,049;-0,043;-0,045;-0,032;3,197
20130325;0,009;0,002;0,016;-0,02;-0,728
20130326;-0,051;-0,031;-0,076;-0,064;6,162
20130327;0,005;-0,016;0,008;0,024;-0,731
20130328;-0,007;0,009;0,047;0,017;0,406
20130402;-0,021;-0,037;-0,029;-0,028;1,702
20130403;-0,005;-0,005;0,007;-0,01;-0,291
20130404;-0,01;-0,01;-0,029;-0,029;-0,72
20130405;0;0,015;0;0;0,824
20130408;-0,053;-0,019;-0,025;0,002;-0,813
20130409;0,036;0,007;0,036;0,01;1,023
20130410;-0,005;-0,027;-0,067;-0,064;8,642
20130411;-0,055;-0,05;-0,027;0,003;-0,568
20130412;0;-0,005;-0,005;-0,029;-0,087
20130415;-0,037;-0,024;0;0,005;-0,564
20130417;0,019;0,005;-0,014;-0,011;-0,573
20130418;-0,032;-0,032;-0,036;-0,054;-0,4
20130419;-0,025;-0,025;-0,049;0,012;12,953
20130422;0,017;0,017;-0,012;-0,017;-0,312
20130423;-0,078;-0,045;0,012;-0,014;-0,841
20130424;0,036;0,018;0,03;0,018;0,732
20130425;0,009;0;-0,015;-0,032;-0,362
20130426;-0,029;-0,011;-0,03;0,027;4,56
20130429;0,036;0,029;0,068;0,02;-0,418
20130430;0,012;-0,008;0,009;-0,003;-0,931
20130502;-0,003;-0,003;-0,003;-0,003;-0,935
20130506;-0,003;-0,003;-0,066;-0,026;128,891
20130507;-0,049;0,003;0,018;0,024;-0,449
20130508;0,048;0,009;0,039;0,014;0,596
20130509;0,034;0,034;0,035;0,011;2,544
20130510;0;0,003;0;0,025;-0,675
20130513;0,017;0,055;0,022;0,038;0,263
20130514;0,044;0,021;0,044;0,037;-0,621
20130515;0,05;0,117;0,052;0,117;2,81
20130516;0,11;0,014;0,07;0,014;1,09
20130517;0,009;0,007;0,016;0,004;-0,507
20130520;-0,02;-0,018;-0,002;-0,018;9,425
20130521;0;-0,002;-0,011;0;-0,068
20130522;-0,018;-0,018;0,005;-0,018;-0,999
20130523;0;0;-0,079;-0,007;140,258
20130524;-0,007;-0,007;0,048;-0,002;-0,953
20130527;-0,072;0,023;-0,046;0,026;8,394
20130528;0,068;0;0,068;-0,02;-0,857
20130529;0,052;0,018;-0,007;-0,002;2,502
20130531;-0,043;-0,016;0,014;0,007;-0,722
20130603;0,03;0,002;0,009;0,016;-0,828
20130604;-0,009;-0,009;-0,03;-0,014;8,478
20130605;-0,025;-0,014;0,017;-0,005;-0,838
20130606;-0,007;-0,014;-0,007;-0,016;5,65
20130607;0,002;-0,002;-0,038;-0,009;0,477
20130610;-0,031;0,047;0,01;0,057;5,781
20130611;0,041;-0,002;0,041;-0,009;-0,899
20130612;0,026;-0,009;-0,028;-0,034;13,094
20130613;-0,066;0,014;-0,014;0,033;2,241
20130614;0,054;0,002;0,054;0,016;-0,936
20130617;0,032;0,004;-0,03;0,004;0,563
20130618;0,007;0,016;0,05;0,016;7,368
20130619;0,02;0,042;0,041;0,042;-0,871
20130620;0,059;0,023;-0,046;-0,004;0,877
20130621;-0,107;-0,052;-0,009;-0,04;-0,704
20130624;-0,007;-0,046;-0,007;-0,033;-0,4
20130625;0,007;0;0,007;0,002;-0,436
20130626;0,005;-0,009;0;-0,014;-0,8
20130627;0,002;0,018;-0,042;-0,028;34,708
20130628;-0,034;-0,05;-0,08;-0,007;1,292
20130701;-0,01;-0,01;0,047;-0,038;-0,539
20130702;-0,041;-0,005;0;0,032;-0,72
20130703;0,013;0,029;0,013;0,029;-0,583
20130704;0,049;0,007;0,025;-0,021;26,818
20130705;-0,016;-0,028;-0,007;-0,014;-0,994
20130708;-0,01;-0,007;-0,022;0,007;49,657
20130709;0,01;0,012;0,017;-0,012;-0,225
20130710;-0,014;-0,012;-0,012;0,012;-0,817
20130711;0,007;0;0,005;-0,012;1,67
20130712;-0,005;-0,005;-0,012;-0,005;0,59
20130715;-0,019;-0,007;0,007;0,005;-0,961
20130716;0,027;0,024;0,007;0,02;27,549
20130717;0,01;0;0,005;0;-0,972
20130718;-0,012;-0,012;0,012;-0,007;-0,691
20130722;-0,024;-0,024;-0,051;-0,048;150,863
20130723;-0,037;-0,032;-0,01;-0,008;-0,974
20130724;0,023;0,048;0,018;0,023;39,692
20130725;0,038;0,022;0,043;0,047;-0,504
20130726;0,014;0;0,002;-0,007;-0,926
20130729;-0,002;0;0,01;0,007;0,535
20130730;0,002;0;-0,012;-0,014;0,425
20130731;-0,024;-0,024;-0,015;-0,015;1,489
20130801;0;0;-0,017;-0,015;0,249
20130802;-0,02;0;0,003;0,02;0,466
20130805;0,02;0;0;0;0,44
20130806;0,002;0,024;0,02;0,024;9,609
20130807;0,012;0,048;0,015;0,048;-0,69
20130808;0,13;0,068;0,106;0,055;-0,734
20130809;-0,013;0;-0,054;-0,009;1,728
20130812;0;-0,011;0,023;-0,033;-0,676
20130813;-0,037;-0,039;-0,016;-0,011;1,328
20130814;-0,016;0,051;0,005;0,068;0,046
20130816;0,08;0,011;0,045;-0,021;-0,947
20130819;-0,032;0,011;0;0,043;42,922
20130820;0,057;0,017;0,043;0,012;-0,693
20130821;0;-0,004;-0,021;-0,027;-0,774
20130822;-0,01;-0,01;0,006;0,013;8,263
20130823;-0,002;0,008;0,004;0,002;-0,669
20130826;0;0,029;0,011;0,021;5,53
20130827;0,037;-0,002;0,021;0;-0,959
20130828;-0,016;-0,016;-0,002;0;1,549
20130829;0;0;-0,012;-0,014;3,103
20130830;0;0;-0,087;0,002;2,059
20130902;-0,049;-0,049;0,054;-0,039;-0,977
20130903;0,009;0,054;0,011;0,056;12,365
20130904;0,049;0,008;0,032;0,008;-0,784
20130905;0,004;0;-0,014;-0,01;10,82
20130906;-0,026;-0,012;0,008;-0,002;-0,913
20130909;0,006;0;0,006;0;-0,611
20130910;0,008;0,059;-0,01;0,055;27,106
20130911;0,063;0,041;0,083;0,037;-0,441
20130912;0,029;-0,007;0,025;-0,004;-0,893
20130913;0,047;0,151;0,051;0,129;85,41
20130916;0,161;0,055;0,109;0,073;-0,359
20130917;-0,003;0,055;0,024;0,048;0,175
20130918;0,045;-0,013;0,03;-0,027;-0,697
20130919;-0,028;0,018;-0,011;0,018;1,28
20130920;0,029;-0,017;0,034;0;-0,917
20130923;-0,021;-0,021;-0,043;-0,045;1,114
20130924;-0,033;-0,033;-0,025;-0,019;0,49
20130925;-0,019;0;-0,008;0,011;-0,134
20130926;0,002;-0,017;0;-0,009;0,367
20130927;0,011;0,011;0;-0,011;-0,852
20130930;-0,027;-0,014;-0,048;0,006;9,238
20131001;0,002;-0,011;0,034;-0,016;-0,972
20131002;-0,006;-0,006;-0,016;-0,011;5,046
20131003;-0,018;0,011;0,008;0,011;0,09
20131004;0,018;0,016;0,008;0,028;-0,227
20131007;0,026;-0,002;-0,005;-0,024;-0,51
20131008;-0,028;-0,021;0,007;-0,013;-0,006
20131009;-0,01;-0,015;-0,007;-0,002;0,028
20131010;-0,005;0,047;-0,036;0,049;11,966
20131011;0,056;0;0,072;-0,003;-0,716
20131014;0;0;0,006;0;1,888
20131015;-0,002;0;-0,01;-0,009;-0,839
20131016;-0,017;-0,012;0,002;0;0,363
20131017;0,006;0;-0,006;-0,011;-0,413
20131018;-0,008;0,005;-0,003;0,016;1,183
20131021;0,002;0,008;-0,011;0,008;0,51
20131022;0,019;0,041;0,029;0,027;3,591
20131023;0,023;-0,001;0,03;0,005;-0,755
20131024;0,023;0,008;0,015;0,015;0,461
20131025;0;0,015;0,005;-0,001;0,233
20131028;-0,007;0,029;0,002;0,039;1,036
20131029;0,045;0,006;0,039;0,007;0,1
20131030;0,014;0,021;0,014;0,001;-0,324
20131031;-0,02;-0,031;-0,014;-0,006;-0,922
20131104;0,017;0,019;0,014;0,011;3,274
20131105;-0,003;-0,01;0,001;-0,006;-0,325
20131106;-0,001;0,003;-0,024;0,006;0,777
20131107;0,007;0,007;0,018;0,007;0,523
20131108;0,004;-0,003;-0,016;-0,032;-0,783
20131112;-0,031;-0,014;-0,035;0,016;0,52
20131113;0,017;0,003;0,05;0,003;-0,114
20131114;0,003;0,001;-0,003;0;4,693
20131115;0,001;0,068;0,012;0,05;1,258
20131118;0,07;0,001;0,051;0,007;-0,801
20131119;-0,024;0,047;-0,005;0,061;2,836
20131120;0,072;0,003;0,031;-0,009;-0,851
20131121;-0,014;-0,017;0,008;-0,012;-0,498
20131122;-0,006;0,01;0,011;0,013;-0,389
20131125;0,013;0,003;0,013;0,001;0,031
20131126;0;0,003;-0,073;-0,026;2,254
20131127;-0,05;-0,033;0,018;-0,033;1,962
20131128;-0,007;-0,013;-0,029;-0,011;-0,863
20131129;-0,011;-0,031;-0,013;-0,001;4,99
20131202;0,012;0,018;0,028;0;-0,331
20131203;-0,014;-0,019;-0,018;-0,001;-0,641
20131204;-0,019;-0,015;-0,014;-0,014;0,583
20131205;0;0,014;0,014;0,003;0,919
20131206;-0,003;-0,021;-0,101;-0,011;2,036
20131209;-0,001;0,003;0,097;0,004;-0,843
20131210;0,006;0,001;-0,003;0;1,665
20131211;0;0,017;0,003;0,011;-0,755
20131212;0,015;-0,001;-0,009;-0,007;3,443
20131213;-0,026;-0,006;0,009;0,007;-0,678
20131216;0,021;0;0,001;-0,021;-0,731
20131217;-0,021;-0,021;-0,033;-0,035;0,534
20131218;-0,023;-0,016;-0,013;0,019;0,172
20131219;-0,006;-0,001;0,021;0;-0,528
20131220;0,012;0;-0,051;-0,006;23,275
20131223;0,007;0,007;0,009;0,006;-0,555
20131227;-0,007;-0,007;0,056;0;-0,951
20131230;-0,004;0,01;-0,02;-0,006;1,33
20140102;0,019;0,004;0,024;0,013;-0,483
20140103;-0,007;-0,001;-0,023;0,004;0,836
20140107;0,003;-0,003;0,003;-0,021;0,041
20140108;-0,021;-0,001;0,006;0,019;1,238
20140109;0,015;-0,006;0,012;-0,009;-0,885
20140110;-0,001;0,05;-0,007;0,053;30,473
20140113;0,009;-0,001;0,017;-0,001;-0,847
20140114;0,007;-0,012;0,007;-0,012;-0,863
20140115;0,021;0,006;0,007;-0,014;4,959
20140116;-0,012;-0,012;0;0;0,388
20140117;0;-0,006;0;0;-0,788
20140120;-0,001;0,004;0;0;6,25
20140121;0;0,028;0;0,02;6,176
20140122;0,028;0,014;0,028;0,011;-0,853
20140123;0,014;0,024;0,014;0,036;0,171
20140124;0,027;0,007;0,022;0,009;0,663
20140127;-0,008;-0,007;-0,013;-0,004;-0,024
20140128;0,011;0,05;0,008;0,037;1,947
20140129;0,076;0,028;0,068;0,034;0,665
20140130;-0,007;0,062;0,002;0,06;-0,309
20140131;0,072;0;0,067;-0,001;0,459
20140203;-0,009;0,019;0,001;0,015;-0,49
20140204;0,012;-0,016;0,008;-0,01;-0,631
20140205;-0,029;-0,03;-0,039;-0,029;0,638
20140206;-0,008;-0,008;-0,023;-0,036;-0,023
20140207;-0,019;-0,019;-0,01;-0,005;4,048
20140210;-0,021;-0,005;-0,005;-0,01;-0,965
20140211;-0,006;-0,001;-0,025;-0,004;4,885
20140212;-0,007;0,022;0,022;0,039;0,368
20140213;0,044;-0,004;0,033;0,008;-0,832
20140214;0,001;-0,001;-0,01;-0,014;0,026
20140217;-0,023;-0,02;-0,013;-0,01;1,012
20140218;-0,012;0,002;-0,017;-0,009;0,123
20140219;0,016;-0,002;0,008;0;-0,299
20140220;-0,011;0;0,013;0;-0,575
20140221;-0,011;-0,005;-0,01;0,006;0,213
20140224;0,006;0,004;0,008;-0,006;-0,281
20140225;0,005;-0,01;-0,016;-0,019;2,114
20140226;-0,014;-0,014;-0,028;-0,03;0,187
20140227;-0,036;-0,036;-0,045;-0,023;-0,244
20140228;-0,036;0;0,008;0,023;-0,278
20140303;0,007;-0,03;-0,065;-0,078;3,299
20140304;-0,056;-0,024;0,016;0,021;-0,559
20140305;0,043;0,043;0,034;0,034;5,526
20140306;0,014;-0,013;0,001;-0,027;-0,88
20140307;-0,019;-0,025;-0,014;-0,014;4,167
20140310;-0,033;-0,033;-0,042;-0,029;-0,741
20140311;-0,011;0,014;0,001;0,026;-0,266
20140312;0,019;-0,007;0,01;-0,024;-0,139
20140313;-0,018;-0,01;-0,003;0,006;0,465
20140314;0,007;0;-0,033;-0,041;6,038
20140317;-0,045;-0,021;-0,001;0,022;-0,872
20140318;0,027;0,006;0,027;0,006;-0,144
20140319;0,007;0,081;0,007;0,081;3,891
20140320;0,092;0,033;0,065;0,02;-0,708
20140321;0,014;0;0,028;0,003;0,125
20140324;-0,005;-0,012;-0,047;-0,039;-0,63
20140325;-0,046;-0,03;0,008;0,008;-0,746
20140326;0,016;0;-0,003;-0,008;3,223
20140327;-0,011;-0,011;-0,01;-0,02;-0,727
20140328;-0,02;-0,018;-0,035;-0,03;7,13
20140331;-0,029;0,017;-0,004;0,049;-0,343
20140401;0,05;0;0;-0,046;3,151
20140402;-0,046;-0,046;-0,02;-0,01;-0,706
20140403;-0,026;0;0,003;0,01;4,266
20140404;0,01;0,009;0,007;0,001;-0,19
20140407;0,001;-0,023;-0,004;-0,024;-0,108
20140408;-0,001;-0,001;0;0,001;-0,915
20140409;-0,004;0;0,003;0,001;0,268
20140410;0,004;0;-0,004;-0,001;-0,03
20140411;-0,009;-0,007;-0,012;-0,006;0,727
20140414;-0,007;-0,009;-0,012;-0,021;-0,586
20140415;-0,047;-0,034;-0,04;-0,04;12,814
20140416;-0,014;-0,027;-0,044;-0,012;-0,657
20140417;-0,003;-0,003;0,021;-0,011;8,954
20140422;-0,016;0,024;0;0,04;-0,956
20140423;0,04;0,011;0,024;-0,015;0,198
20140424;-0,018;-0,024;-0,023;-0,023;-0,429
20140425;-0,019;-0,002;0,002;0,01;-0,845
20140428;0,008;-0,014;0,008;0;-0,958
20140429;0,013;0,013;0,006;0,006;0,733
20140430;-0,003;-0,003;-0,011;-0,011;27,462
20140502;-0,003;-0,003;-0,002;-0,002;-0,934
20140505;0;0;-0,019;-0,019;25,204
20140506;-0,027;-0,027;-0,013;0;-0,68
20140507;-0,005;-0,005;-0,046;-0,026;20,01
20140508;-0,029;-0,029;0,016;-0,015;7,362
20140509;-0,023;-0,023;-0,039;-0,042;-0,989
20140512;-0,048;-0,036;-0,025;-0,005;1,552
20140513;0,009;0,005;0,016;-0,004;31,109
20140514;0,011;0,009;0;0;-0,976
20140515;0,016;0,042;0,027;0,046;3,102
20140516;0;-0,003;-0,002;-0,007;-0,708
20140519;0,012;-0,01;-0,002;-0,015;-0,065
20140520;-0,015;-0,017;-0,019;0,005;1,54
20140521;-0,021;0;-0,004;0;0,122
20140522;0,023;0,009;0,005;0,009;-0,466
20140523;0,012;0;0,012;-0,01;9,731
20140526;0,005;0,005;0,009;0;-0,933
20140527;-0,015;-0,005;0;0,009;-0,667
20140528;0,009;0,019;0,009;0,002;14,735
20140529;-0,002;-0,01;-0,002;0,002;-0,964
20140530;0,007;-0,005;0,007;0,002;-0,858
20140602;0,014;0,014;0,003;0,003;6,059
20140603;0,002;0,007;-0,019;0;26,131
20140604;-0,012;-0,008;0,019;0,009;-0,894
20140605;0,005;0,017;0,005;0,008;4,576
20140606;0,02;0;0,003;0,008;-0,966
20140609;0;0;0,008;-0,008;1,184
20140610;0;0;0,002;0,002;9,077
20140611;-0,007;-0,003;-0,008;-0,008;-0,093
20140612;-0,005;-0,008;-0,003;-0,003;-0,895
20140613;-0,025;-0,017;-0,019;-0,01;-0,873
20140616;-0,002;-0,01;-0,002;-0,01;0,981
20140617;0;0;0;0;1,845
20140618;0;0,005;0;0,005;2,317
20140620;-0,002;0;-0,012;0;0,958
20140623;-0,005;0,017;0,005;0,017;-0,614
20140624;0,047;0,017;0,026;-0,003;0,835
20140625;-0,028;-0,028;-0,044;-0,008;1,198
20140626;0,111;0,111;0,076;0,053;-0,537
20140627;-0,052;-0,052;0,003;-0,012;-0,729
20140630;-0,02;-0,02;-0,029;-0,01;-0,685
20140701;-0,021;-0,021;-0,014;-0,033;27,957
20140703;-0,023;-0,009;-0,018;0;-0,647
20140704;0,009;-0,005;0;-0,018;-0,632
20140707;-0,019;-0,019;-0,036;-0,013;1,143
20140708;-0,009;-0,009;0,009;-0,005;-0,385
20140710;-0,022;-0,022;-0,028;-0,02;3,44
20140711;-0,028;0;-0,01;0,006;-0,275
20140714;0,006;0,015;0,01;0,006;0,94
20140715;0,029;-0,009;0,006;-0,009;-0,22
20140716;-0,011;-0,002;-0,004;0,007;-0,269
20140717;-0,026;0;-0,011;0;-0,429
20140718;0,037;0,007;0,01;0,007;0,207
20140721;0,007;0;0,01;-0,007;-0,256
20140722;-0,022;-0,011;-0,015;-0,004;0,418
20140723;0,006;-0,006;0,006;-0,022;-0,025
20140724;-0,022;-0,019;-0,006;-0,006;-0,279
20140725;-0,011;-0,011;-0,029;-0,021;2,397
20140728;-0,002;0,004;0,016;0,008;-0,684
20140729;0;0,015;-0,019;0,025;-0,014
20140730;0,016;-0,009;0,036;-0,009;-0,866
20140731;-0,008;-0,008;-0,008;-0,008;-0,667
20140801;-0,013;0,002;-0,021;-0,01;20,64
20140804;0,006;-0,01;0;-0,002;-0,725
20140805;0,01;0,037;-0,024;-0,031;17,181
20140806;-0,046;-0,066;-0,016;-0,018;-0,179
20140807;-0,016;-0,022;-0,037;-0,037;-0,805
20140808;-0,037;-0,037;-0,028;-0,017;1,313
20140811;0,036;0,036;0,022;0,011;12,016
20140812;-0,025;-0,025;0,011;0,011;-0,996
20140813;-0,019;-0,002;-0,013;0,004;3,9
20140814;-0,017;-0,013;-0,036;-0,013;111,007
20140818;0,022;0;0,036;-0,006;-0,971
20140819;-0,004;-0,002;0,002;0,004;-0,831
20140820;0,006;0,009;0,006;0,009;-0,493
20140821;0,004;0,055;0,002;0,055;11,329
20140822;0,064;0,042;0,051;-0,004;5,735
20140825;0,004;0,019;0,018;0,038;0,454
20140826;0,028;0,047;0,028;0,021;0,158
20140827;0,023;0;0,023;0,051;-0,637
20140828;0,045;0;-0,038;-0,049;0,742
20140829;-0,051;-0,051;0,002;-0,011;-0,686
20140901;-0,011;-0,01;-0,006;-0,023;-0,437
20140902;-0,023;-0,023;-0,004;-0,002;3,767
20140903;0,004;0,028;0,008;0,014;-0,835
20140904;0,014;0,004;0,014;0,006;-0,173
20140905;0,008;-0,008;-0,031;-0,016;2,809
20140908;-0,035;-0,002;0,004;0,022;-0,55
20140909;0,034;0,027;0,02;0,027;2,981
20140910;0,021;0,032;0,035;0,026;-0,417
20140911;0,026;-0,011;-0,047;-0,066;4,609
20140912;-0,044;-0,035;0,016;0,004;-0,884
20140915;-0,004;0,004;0,01;0,027;-0,624
20140916;0,017;0,028;0,014;0,006;6,919
20140917;0,023;-0,006;0,01;0;-0,709
20140918;-0,024;-0,015;-0,009;0,002;0,07
20140919;0,023;0,019;0,015;0,017;0,466
20140922;0,002;-0,002;0,011;0;-0,751
20140923;-0,007;-0,009;-0,061;-0,033;3,953
20140924;-0,032;-0,032;-0,002;-0,033;-0,244
20140925;-0,023;0,01;0;0,036;0,189
20140929;0,028;-0,006;0,026;-0,01;-0,943
20140930;-0,004;0,01;-0,006;0,014;4,047
20141001;-0,002;-0,015;-0,004;-0,023;0,286
20141002;-0,015;-0,014;-0,01;-0,01;0,457
20141003;-0,002;0,02;0;0,024;-0,883
20141006;0,024;0;0,004;-0,017;5,958
20141007;-0,019;-0,01;0;0,002;-0,848
20141008;0,004;-0,006;0,004;0;-0,875
20141009;-0,002;-0,002;-0,029;-0,029;87,62
20141010;-0,022;-0,022;-0,074;-0,044;-0,137
20141013;-0,05;-0,04;0,033;0,008;-0,855
20141014;0,011;0;-0,004;-0,008;1,309
20141015;0;0;-0,011;-0,013;-0,084
20141016;-0,017;-0,017;-0,038;-0,03;3,635
20141017;-0,03;-0,002;0,011;0,033;4,871
20141020;0,026;-0,002;0,024;-0,009;-0,786
20141021;-0,011;0;-0,002;0,009;-0,666
20141022;0;0,013;0;0,013;3,676
20141023;0,019;-0,004;0,006;-0,017;-0,412
20141024;0,002;0,034;0,015;0,026;0,75
20141027;0,011;-0,004;0,011;0,012;-0,91
20141028;0,004;0,029;0,004;0,027;8,084
20141029;0,056;0,014;0,027;-0,008;-0,641
20141030;-0,012;-0,012;-0,008;0,008;-0,952
20141031;-0,014;-0,014;0;-0,016;3,768
20141103;-0,01;-0,002;-0,004;-0,004;0,143
20141104;-0,004;-0,01;-0,004;-0,004;0,938
20141105;0,002;0;0,006;0,006;-0,236
20141106;-0,006;0,02;-0,01;-0,01;4,175
20141107;0,014;-0,012;-0,01;-0,01;-0,857
20141110;-0,036;-0,036;-0,012;-0,01;0,757
20141112;-0,002;0,027;0,002;0,021;1,748
20141113;0,006;-0,02;0,006;-0,012;-0,978
20141114;0,004;0,002;0,002;0;3,84
20141117;0;0;-0,025;-0,025;6,837
20141118;-0,025;-0,025;0;0;-0,947
20141119;0,004;0,004;-0,017;-0,017;10,825
20141120;-0,023;-0,023;-0,041;-0,041;0,552
20141121;-0,02;-0,02;-0,027;-0,027;0,968
20141124;-0,049;-0,047;-0,03;-0,026;0,547
20141125;-0,009;-0,012;-0,036;-0,041;-0,603
20141126;-0,054;-0,021;0,002;0,03;0,168
20141127;0,027;0;0,022;0,007;-0,852
20141128;0,005;0,012;0;0;3,651
20141201;-0,005;-0,002;0;0,01;-0,728
20141202;0,015;0,021;0,02;0,005;1,676
20141203;0,041;0,047;0,038;0,064;3,064
20141204;0,06;0,038;0,046;0,027;-0,295
20141205;-0,002;0,015;-0,031;-0,02;-0,149
20141208;-0,043;-0,068;-0,068;-0,027;3,43
20141209;-0,02;-0,016;0,049;-0,016;-0,679
20141210;-0,014;-0,018;-0,058;-0,019;1,278
20141211;-0,035;-0,012;0,012;-0,009;-0,421
20141212;0,002;0;-0,002;0;0,014
20141215;0,032;0,01;0,037;0,01;-0,95
20141216;-0,021;-0,021;-0,045;-0,045;3,477
20141217;-0,024;-0,024;-0,012;-0,012;4,56
20141218;-0,012;0,007;0;0;-0,061
20141219;0,02;0;0,005;0,005;-0,979
20141222;-0,005;-0,005;-0,037;-0,015;38,807
20141223;-0,025;-0,025;-0,047;-0,015;1,218
20141229;-0,025;0,008;0,046;0,01;-0,859
20141230;0,036;0,008;0,028;0,02;-0,516
