From;To;Date
7;6;20081218
6;7;20081219
7;6;20081222
6;6;20081223
6;6;20081229
6;6;20081230
6;6;20081231
6;7;20090105
7;7;20090106
7;7;20090107
7;6;20090108
6;6;20090112
6;7;20090113
7;7;20090114
7;7;20090115
7;7;20090116
7;7;20090119
7;7;20090120
7;6;20090121
6;7;20090122
7;7;20090123
7;6;20090126
6;6;20090127
6;6;20090128
6;6;20090129
6;6;20090130
6;6;20090202
6;5;20090203
5;5;20090204
5;5;20090205
5;5;20090206
5;6;20090209
6;6;20090210
6;6;20090211
6;6;20090212
6;6;20090213
6;5;20090216
5;5;20090217
5;5;20090218
5;5;20090219
5;5;20090220
5;5;20090223
5;5;20090224
5;5;20090225
5;6;20090226
6;6;20090227
6;5;20090302
5;5;20090303
5;5;20090304
5;6;20090305
6;6;20090306
6;5;20090309
5;5;20090310
5;5;20090311
5;5;20090312
5;6;20090313
6;6;20090316
6;6;20090317
6;6;20090318
6;6;20090319
6;6;20090320
6;7;20090323
7;7;20090324
7;7;20090325
7;7;20090326
7;7;20090327
7;7;20090330
7;7;20090331
7;7;20090401
7;7;20090402
7;7;20090403
7;7;20090406
7;7;20090407
7;7;20090408
7;8;20090409
8;7;20090414
7;7;20090415
7;8;20090416
8;8;20090417
8;7;20090420
7;7;20090421
7;8;20090422
8;8;20090423
8;9;20090424
9;8;20090427
8;11;20090428
11;11;20090429
11;11;20090430
11;11;20090504
11;11;20090505
11;11;20090506
11;11;20090507
11;11;20090508
11;11;20090511
11;11;20090512
11;11;20090513
11;11;20090514
11;10;20090515
10;11;20090518
11;11;20090519
11;11;20090520
11;11;20090521
11;11;20090522
11;11;20090525
11;11;20090526
11;11;20090527
11;11;20090528
11;11;20090529
11;12;20090601
12;12;20090602
12;12;20090603
12;12;20090604
12;12;20090605
12;12;20090608
12;13;20090609
13;14;20090610
14;14;20090612
14;13;20090615
13;13;20090616
13;14;20090617
14;13;20090618
13;12;20090619
12;13;20090622
13;12;20090623
12;12;20090624
12;12;20090625
12;12;20090626
12;12;20090629
12;14;20090630
14;14;20090701
14;14;20090702
14;13;20090703
13;14;20090706
14;13;20090707
13;13;20090708
13;13;20090709
13;13;20090710
13;13;20090713
13;13;20090714
13;13;20090715
13;13;20090716
13;13;20090717
13;13;20090720
13;14;20090721
14;14;20090722
14;14;20090723
14;14;20090724
14;14;20090727
14;14;20090728
14;14;20090729
14;14;20090730
14;13;20090731
13;13;20090803
13;13;20090804
13;13;20090805
13;14;20090806
14;14;20090807
14;14;20090810
14;15;20090811
15;14;20090812
14;14;20090813
14;14;20090814
14;15;20090817
15;15;20090818
15;15;20090819
15;16;20090820
16;17;20090821
17;16;20090824
16;17;20090825
17;18;20090826
18;17;20090827
17;19;20090828
19;18;20090831
18;18;20090901
18;17;20090902
17;17;20090903
17;17;20090904
17;17;20090907
17;17;20090908
17;17;20090909
17;17;20090910
17;16;20090911
16;16;20090914
16;17;20090915
17;17;20090916
17;17;20090917
17;17;20090918
17;17;20090921
17;17;20090922
17;17;20090923
17;17;20090924
17;16;20090925
16;16;20090928
16;16;20090929
16;16;20090930
16;15;20091001
15;15;20091002
15;15;20091005
15;16;20091006
16;16;20091007
16;16;20091008
16;17;20091009
17;17;20091012
17;17;20091013
17;17;20091014
17;17;20091015
17;17;20091016
17;17;20091019
17;16;20091020
16;16;20091021
16;16;20091022
16;16;20091023
16;15;20091026
15;15;20091027
15;15;20091028
15;15;20091029
15;16;20091030
16;16;20091102
16;16;20091103
16;16;20091104
16;16;20091105
16;15;20091106
15;15;20091109
15;15;20091110
15;15;20091112
15;15;20091113
15;15;20091116
15;15;20091117
15;15;20091118
15;15;20091119
15;15;20091120
15;15;20091123
15;15;20091124
15;15;20091125
15;15;20091126
15;14;20091127
14;15;20091130
15;15;20091201
15;14;20091202
14;15;20091203
15;15;20091204
15;15;20091207
15;14;20091208
14;14;20091209
14;14;20091210
14;14;20091211
14;14;20091214
14;14;20091215
14;13;20091216
13;13;20091217
13;14;20091218
14;15;20091221
15;15;20091222
15;14;20091223
14;14;20091228
14;15;20091229
15;15;20091230
15;15;20091231
15;15;20100104
15;15;20100105
15;15;20100106
15;15;20100107
15;15;20100108
15;15;20100111
15;15;20100112
15;15;20100113
15;15;20100114
15;15;20100115
15;15;20100118
15;15;20100119
15;15;20100120
15;15;20100121
15;15;20100122
15;15;20100125
15;15;20100126
15;15;20100127
15;15;20100128
15;15;20100129
15;15;20100201
15;15;20100202
15;15;20100203
15;15;20100204
15;15;20100205
15;15;20100208
15;15;20100209
15;15;20100210
15;15;20100211
15;15;20100212
15;15;20100215
15;15;20100216
15;16;20100217
16;16;20100218
16;16;20100219
16;16;20100222
16;16;20100223
16;17;20100224
17;17;20100225
17;17;20100226
17;17;20100301
17;17;20100302
17;17;20100303
17;17;20100304
17;17;20100305
17;18;20100308
18;18;20100309
18;18;20100310
18;18;20100311
18;18;20100312
18;18;20100315
18;18;20100316
18;18;20100317
18;18;20100318
18;18;20100319
18;17;20100322
17;16;20100323
16;16;20100324
16;16;20100325
16;16;20100326
16;17;20100329
17;18;20100330
18;18;20100331
18;18;20100401
18;18;20100406
18;18;20100407
18;18;20100408
18;18;20100409
18;17;20100412
17;17;20100413
17;18;20100414
18;17;20100415
17;17;20100416
17;16;20100419
16;17;20100420
17;16;20100421
16;16;20100422
16;17;20100423
17;17;20100426
17;16;20100427
16;16;20100428
16;16;20100429
16;15;20100430
15;15;20100504
15;15;20100505
15;16;20100506
16;15;20100507
15;15;20100510
15;16;20100511
16;15;20100512
15;15;20100513
15;15;20100514
15;14;20100517
14;15;20100518
15;15;20100519
15;14;20100520
14;14;20100521
14;13;20100524
13;13;20100525
13;13;20100526
13;13;20100527
13;14;20100528
14;14;20100531
14;14;20100601
14;14;20100602
14;14;20100604
14;14;20100607
14;14;20100608
14;14;20100609
14;14;20100610
14;14;20100611
14;14;20100614
14;14;20100615
14;14;20100616
14;14;20100617
14;14;20100618
14;14;20100621
14;14;20100622
14;14;20100623
14;14;20100624
14;14;20100625
14;14;20100628
14;14;20100629
14;14;20100630
14;14;20100701
14;14;20100702
14;14;20100705
14;14;20100706
14;15;20100707
15;15;20100708
15;16;20100709
16;16;20100712
16;16;20100713
16;16;20100714
16;17;20100715
17;17;20100716
17;17;20100719
17;16;20100720
16;16;20100721
16;16;20100722
16;16;20100723
16;16;20100726
16;17;20100727
17;17;20100728
17;17;20100729
17;17;20100730
17;17;20100802
17;17;20100803
17;17;20100804
17;17;20100805
17;17;20100806
17;17;20100809
17;17;20100810
17;17;20100811
17;16;20100812
16;16;20100813
16;16;20100816
16;16;20100817
16;16;20100818
16;16;20100819
16;16;20100820
16;16;20100823
16;15;20100824
15;15;20100825
15;15;20100826
15;16;20100827
16;16;20100830
16;16;20100831
16;16;20100901
16;16;20100902
16;16;20100903
16;16;20100906
16;16;20100907
16;16;20100908
16;16;20100909
16;15;20100910
15;15;20100913
15;15;20100914
15;15;20100915
15;15;20100916
15;15;20100917
15;16;20100920
16;16;20100921
16;16;20100922
16;16;20100923
16;16;20100924
16;16;20100927
16;16;20100928
16;15;20100929
15;16;20100930
16;16;20101001
16;15;20101004
15;15;20101005
15;16;20101006
16;16;20101007
16;16;20101008
16;16;20101011
16;15;20101012
15;15;20101013
15;15;20101014
15;15;20101015
15;15;20101018
15;15;20101019
15;15;20101020
15;15;20101021
15;15;20101022
15;15;20101025
15;15;20101026
15;15;20101027
15;15;20101028
15;15;20101029
15;15;20101102
15;16;20101103
16;16;20101104
16;16;20101105
16;16;20101108
16;17;20101109
17;18;20101110
18;17;20101112
17;17;20101115
17;17;20101116
17;17;20101117
17;17;20101118
17;17;20101119
17;17;20101122
17;17;20101123
17;17;20101124
17;17;20101125
17;17;20101126
17;17;20101129
17;17;20101130
17;17;20101201
17;17;20101202
17;17;20101203
17;17;20101206
17;17;20101207
17;17;20101208
17;17;20101209
17;16;20101210
16;16;20101213
16;17;20101214
17;17;20101215
17;17;20101216
17;17;20101217
17;17;20101220
17;17;20101221
17;17;20101222
17;17;20101223
17;17;20101227
17;17;20101228
17;17;20101229
17;17;20101230
17;17;20101231
17;17;20110103
17;17;20110104
17;17;20110105
17;17;20110107
17;17;20110110
17;17;20110111
17;17;20110112
17;17;20110113
17;16;20110114
16;16;20110117
16;16;20110118
16;16;20110119
16;16;20110120
16;16;20110121
16;16;20110124
16;16;20110125
16;16;20110126
16;16;20110127
16;16;20110128
16;16;20110131
16;16;20110201
16;16;20110202
16;16;20110203
16;16;20110204
16;17;20110207
17;17;20110208
17;17;20110209
17;17;20110210
17;17;20110211
17;17;20110214
17;16;20110215
16;16;20110216
16;16;20110217
16;16;20110218
16;16;20110221
16;16;20110222
16;16;20110223
16;17;20110224
17;17;20110225
17;17;20110228
17;17;20110301
17;17;20110302
17;17;20110303
17;17;20110304
17;17;20110307
17;17;20110308
17;17;20110309
17;17;20110310
17;17;20110311
17;17;20110314
17;17;20110315
17;17;20110316
17;17;20110317
17;17;20110318
17;17;20110321
17;18;20110322
18;18;20110323
18;17;20110324
17;17;20110325
17;17;20110328
17;17;20110329
17;17;20110330
17;17;20110331
17;17;20110401
17;17;20110404
17;17;20110405
17;17;20110406
17;17;20110407
17;17;20110408
17;17;20110411
17;16;20110412
16;16;20110413
16;16;20110414
16;16;20110415
16;16;20110418
16;16;20110419
16;16;20110420
16;16;20110421
16;16;20110426
16;16;20110427
16;16;20110428
16;16;20110429
16;16;20110502
16;15;20110504
15;15;20110505
15;15;20110506
15;15;20110509
15;15;20110510
15;15;20110511
15;15;20110512
15;14;20110513
14;13;20110516
13;13;20110517
13;13;20110518
13;12;20110519
12;13;20110520
13;13;20110523
13;13;20110524
13;13;20110525
13;13;20110526
13;13;20110527
13;13;20110530
13;13;20110531
13;13;20110601
13;13;20110602
13;13;20110603
13;13;20110606
13;13;20110607
13;13;20110608
13;13;20110609
13;14;20110610
14;13;20110613
13;13;20110614
13;13;20110615
13;13;20110616
13;13;20110617
13;12;20110620
12;12;20110621
12;12;20110622
12;11;20110624
11;10;20110627
10;10;20110628
10;10;20110629
10;10;20110630
10;10;20110701
10;10;20110704
10;10;20110705
10;10;20110706
10;10;20110707
10;9;20110708
9;9;20110711
9;9;20110712
9;9;20110713
9;9;20110714
9;9;20110715
9;8;20110718
8;8;20110719
8;8;20110720
8;8;20110721
8;8;20110722
8;8;20110725
8;8;20110726
8;8;20110727
8;8;20110728
8;8;20110729
8;8;20110801
8;8;20110802
8;8;20110803
8;7;20110804
7;7;20110805
7;6;20110808
6;6;20110809
6;7;20110810
7;7;20110811
7;7;20110812
7;8;20110816
8;8;20110817
8;7;20110818
7;7;20110819
7;7;20110822
7;7;20110823
7;7;20110824
7;7;20110825
7;7;20110826
7;7;20110829
7;7;20110830
7;7;20110831
7;7;20110901
7;7;20110902
7;6;20110905
6;6;20110906
6;6;20110907
6;6;20110908
6;6;20110909
6;6;20110912
6;6;20110913
6;6;20110914
6;6;20110915
6;5;20110916
5;5;20110919
5;5;20110920
5;5;20110921
5;5;20110922
5;5;20110923
5;5;20110926
5;5;20110927
5;5;20110928
5;5;20110929
5;5;20110930
5;4;20111003
4;4;20111004
4;4;20111005
4;5;20111006
5;5;20111007
5;5;20111010
5;4;20111011
4;4;20111012
4;4;20111013
4;5;20111014
5;5;20111017
5;5;20111018
5;5;20111019
5;5;20111020
5;5;20111021
5;5;20111024
5;5;20111025
5;5;20111026
5;5;20111027
5;5;20111028
5;5;20111031
5;5;20111102
5;5;20111103
5;5;20111104
5;5;20111107
5;5;20111108
5;5;20111109
5;5;20111110
5;5;20111114
5;5;20111115
5;5;20111116
5;5;20111117
5;4;20111118
4;4;20111121
4;4;20111122
4;4;20111123
4;4;20111124
4;4;20111125
4;4;20111128
4;4;20111129
4;4;20111130
4;4;20111201
4;4;20111202
4;4;20111205
4;4;20111206
4;4;20111207
4;3;20111208
3;4;20111209
4;4;20111212
4;4;20111213
4;4;20111214
4;4;20111215
4;4;20111216
4;4;20111219
4;4;20111220
4;4;20111221
4;4;20111222
4;4;20111223
4;4;20111227
4;4;20111228
4;4;20111229
4;4;20111230
4;4;20120102
4;4;20120103
4;4;20120104
4;4;20120105
4;4;20120109
4;4;20120110
4;4;20120111
4;4;20120112
4;4;20120113
4;4;20120116
4;5;20120117
5;5;20120118
5;5;20120119
5;5;20120120
5;5;20120123
5;5;20120124
5;6;20120125
6;6;20120126
6;6;20120127
6;7;20120130
7;7;20120131
7;7;20120201
7;7;20120202
7;7;20120203
7;7;20120206
7;7;20120207
7;7;20120208
7;7;20120209
7;6;20120210
6;7;20120213
7;7;20120214
7;7;20120215
7;7;20120216
7;7;20120217
7;8;20120220
8;7;20120221
7;7;20120222
7;7;20120223
7;7;20120224
7;7;20120227
7;7;20120228
7;6;20120229
6;7;20120301
7;7;20120302
7;7;20120305
7;6;20120306
6;7;20120307
7;7;20120308
7;7;20120309
7;7;20120312
7;7;20120313
7;7;20120314
7;7;20120315
7;6;20120316
6;6;20120319
6;6;20120320
6;6;20120321
6;6;20120322
6;6;20120323
6;6;20120326
6;6;20120327
6;6;20120328
6;6;20120329
6;6;20120330
6;6;20120402
6;6;20120403
6;6;20120404
6;6;20120405
6;5;20120410
5;5;20120411
5;5;20120412
5;5;20120413
5;6;20120416
6;5;20120417
5;6;20120418
6;6;20120419
6;6;20120420
6;5;20120423
5;6;20120424
6;5;20120425
5;5;20120426
5;5;20120427
5;5;20120430
5;5;20120502
5;6;20120504
6;5;20120507
5;5;20120508
5;5;20120509
5;5;20120510
5;5;20120511
5;5;20120514
5;5;20120515
5;5;20120516
5;4;20120517
4;5;20120518
5;5;20120521
5;5;20120522
5;5;20120523
5;5;20120524
5;5;20120525
5;5;20120528
5;5;20120529
5;4;20120530
4;4;20120531
4;4;20120601
4;4;20120604
4;4;20120605
4;4;20120606
4;4;20120608
4;4;20120611
4;4;20120612
4;5;20120613
5;5;20120614
5;6;20120615
6;6;20120618
6;6;20120619
6;5;20120620
5;5;20120621
5;4;20120622
4;4;20120625
4;4;20120626
4;4;20120627
4;4;20120628
4;4;20120629
4;3;20120702
3;3;20120703
3;3;20120704
3;3;20120705
3;3;20120706
3;3;20120709
3;3;20120710
3;3;20120711
3;3;20120712
3;3;20120713
3;3;20120716
3;3;20120717
3;3;20120718
3;3;20120719
3;3;20120720
3;3;20120723
3;3;20120724
3;3;20120725
3;3;20120726
3;3;20120727
3;3;20120730
3;3;20120731
3;3;20120801
3;3;20120802
3;3;20120803
3;3;20120806
3;3;20120807
3;3;20120808
3;3;20120809
3;3;20120810
3;3;20120813
3;3;20120814
3;3;20120816
3;3;20120817
3;3;20120820
3;3;20120821
3;3;20120822
3;3;20120823
3;3;20120824
3;3;20120827
3;3;20120828
3;3;20120829
3;3;20120830
3;3;20120831
3;3;20120903
3;3;20120904
3;3;20120905
3;3;20120906
3;3;20120907
3;3;20120910
3;3;20120911
3;3;20120912
3;3;20120913
3;3;20120914
3;3;20120917
3;3;20120918
3;3;20120919
3;3;20120920
3;3;20120921
3;3;20120924
3;3;20120925
3;3;20120926
3;3;20120927
3;3;20120928
3;3;20121001
3;3;20121002
3;3;20121003
3;3;20121004
3;3;20121005
3;3;20121008
3;3;20121009
3;3;20121010
3;3;20121011
3;3;20121012
3;3;20121015
3;3;20121016
3;3;20121017
3;3;20121018
3;3;20121019
3;3;20121022
3;3;20121023
3;3;20121024
3;3;20121025
3;3;20121026
3;3;20121029
3;3;20121030
3;3;20121031
3;3;20121102
3;3;20121105
3;3;20121106
3;3;20121107
3;3;20121108
3;3;20121109
3;3;20121112
3;3;20121113
3;3;20121114
3;3;20121115
3;3;20121116
3;3;20121119
3;3;20121120
3;3;20121121
3;3;20121122
3;3;20121123
3;3;20121126
3;3;20121127
3;3;20121128
3;3;20121129
3;3;20121130
3;3;20121203
3;3;20121204
3;3;20121205
3;3;20121206
3;3;20121207
3;3;20121210
3;3;20121211
3;3;20121212
3;3;20121213
3;3;20121214
3;3;20121217
3;3;20121218
3;3;20121219
3;3;20121220
3;3;20121221
3;3;20121227
3;3;20121228
3;3;20130102
3;3;20130103
3;3;20130104
3;3;20130107
3;3;20130108
3;3;20130109
3;3;20130110
3;3;20130111
3;3;20130114
3;3;20130115
3;3;20130116
3;3;20130117
3;3;20130118
3;4;20130121
4;4;20130122
4;4;20130123
4;4;20130124
4;4;20130125
4;4;20130128
4;4;20130129
4;4;20130130
4;4;20130131
4;4;20130201
4;4;20130204
4;4;20130205
4;4;20130206
4;4;20130207
4;4;20130208
4;4;20130211
4;4;20130212
4;4;20130213
4;4;20130214
4;4;20130215
4;4;20130218
4;4;20130219
4;4;20130220
4;4;20130221
4;4;20130222
4;4;20130225
4;4;20130226
4;4;20130227
4;4;20130228
4;4;20130301
4;4;20130304
4;4;20130305
4;4;20130306
4;4;20130307
4;4;20130308
4;4;20130311
4;4;20130312
4;4;20130313
4;4;20130314
4;4;20130315
4;4;20130318
4;4;20130319
4;4;20130320
4;4;20130321
4;4;20130322
4;4;20130325
4;3;20130326
3;4;20130327
4;4;20130328
4;4;20130402
4;4;20130403
4;3;20130404
3;3;20130405
3;3;20130408
3;3;20130409
3;3;20130410
3;3;20130411
3;3;20130412
3;3;20130415
3;3;20130417
3;3;20130418
3;3;20130419
3;3;20130422
3;3;20130423
3;3;20130424
3;3;20130425
3;3;20130426
3;3;20130429
3;3;20130430
3;3;20130502
3;3;20130506
3;3;20130507
3;3;20130508
3;3;20130509
3;3;20130510
3;3;20130513
3;3;20130514
3;4;20130515
4;4;20130516
4;4;20130517
4;4;20130520
4;4;20130521
4;4;20130522
4;4;20130523
4;4;20130524
4;4;20130527
4;4;20130528
4;4;20130529
4;4;20130531
4;4;20130603
4;4;20130604
4;4;20130605
4;4;20130606
4;4;20130607
4;4;20130610
4;4;20130611
4;4;20130612
4;4;20130613
4;4;20130614
4;4;20130617
4;4;20130618
4;4;20130619
4;4;20130620
4;4;20130621
4;4;20130624
4;4;20130625
4;4;20130626
4;4;20130627
4;4;20130628
4;3;20130701
3;4;20130702
4;4;20130703
4;4;20130704
4;4;20130705
4;4;20130708
4;3;20130709
3;4;20130710
4;3;20130711
3;3;20130712
3;3;20130715
3;4;20130716
4;4;20130717
4;4;20130718
4;3;20130722
3;3;20130723
3;3;20130724
3;4;20130725
4;4;20130726
4;4;20130729
4;4;20130730
4;3;20130731
3;3;20130801
3;3;20130802
3;3;20130805
3;4;20130806
4;4;20130807
4;4;20130808
4;4;20130809
4;4;20130812
4;4;20130813
4;4;20130814
4;4;20130816
4;4;20130819
4;4;20130820
4;4;20130821
4;4;20130822
4;4;20130823
4;4;20130826
4;4;20130827
4;4;20130828
4;4;20130829
4;4;20130830
4;4;20130902
4;4;20130903
4;4;20130904
4;4;20130905
4;4;20130906
4;4;20130909
4;5;20130910
5;5;20130911
5;5;20130912
5;5;20130913
5;6;20130916
6;6;20130917
6;6;20130918
6;6;20130919
6;6;20130920
6;6;20130923
6;6;20130924
6;6;20130925
6;6;20130926
6;6;20130927
6;6;20130930
6;6;20131001
6;5;20131002
5;6;20131003
6;6;20131004
6;6;20131007
6;5;20131008
5;5;20131009
5;6;20131010
6;6;20131011
6;6;20131014
6;6;20131015
6;6;20131016
6;6;20131017
6;6;20131018
6;6;20131021
6;6;20131022
6;6;20131023
6;6;20131024
6;6;20131025
6;6;20131028
6;6;20131029
6;6;20131030
6;6;20131031
6;6;20131104
6;6;20131105
6;6;20131106
6;6;20131107
6;6;20131108
6;6;20131112
6;6;20131113
6;6;20131114
6;7;20131115
7;7;20131118
7;7;20131119
7;7;20131120
7;7;20131121
7;7;20131122
7;7;20131125
7;7;20131126
7;7;20131127
7;7;20131128
7;7;20131129
7;7;20131202
7;7;20131203
7;6;20131204
6;6;20131205
6;6;20131206
6;6;20131209
6;6;20131210
6;7;20131211
7;6;20131212
6;7;20131213
7;6;20131216
6;6;20131217
6;6;20131218
6;6;20131219
6;6;20131220
6;6;20131223
6;6;20131227
6;6;20131230
6;6;20140102
6;6;20140103
6;6;20140107
6;6;20140108
6;6;20140109
6;7;20140110
7;7;20140113
7;7;20140114
7;6;20140115
6;6;20140116
6;6;20140117
6;6;20140120
6;7;20140121
7;7;20140122
7;7;20140123
7;7;20140124
7;7;20140127
7;7;20140128
7;7;20140129
7;8;20140130
8;8;20140131
8;8;20140203
8;8;20140204
8;8;20140205
8;7;20140206
7;7;20140207
7;7;20140210
7;7;20140211
7;8;20140212
8;8;20140213
8;8;20140214
8;7;20140217
7;7;20140218
7;7;20140219
7;7;20140220
7;7;20140221
7;7;20140224
7;7;20140225
7;7;20140226
7;7;20140227
7;7;20140228
7;6;20140303
6;7;20140304
7;7;20140305
7;7;20140306
7;7;20140307
7;6;20140310
6;6;20140311
6;6;20140312
6;6;20140313
6;6;20140314
6;6;20140317
6;6;20140318
6;7;20140319
7;7;20140320
7;7;20140321
7;7;20140324
7;7;20140325
7;7;20140326
7;7;20140327
7;6;20140328
6;7;20140331
7;6;20140401
6;6;20140402
6;6;20140403
6;6;20140404
6;6;20140407
6;6;20140408
6;6;20140409
6;6;20140410
6;6;20140411
6;6;20140414
6;6;20140415
6;6;20140416
6;6;20140417
6;6;20140422
6;6;20140423
6;6;20140424
6;6;20140425
6;6;20140428
6;6;20140429
6;6;20140430
6;6;20140502
6;5;20140505
5;5;20140506
5;5;20140507
5;5;20140508
5;5;20140509
5;5;20140512
5;5;20140513
5;5;20140514
5;5;20140515
5;5;20140516
5;5;20140519
5;5;20140520
5;5;20140521
5;5;20140522
5;5;20140523
5;5;20140526
5;5;20140527
5;5;20140528
5;5;20140529
5;5;20140530
5;5;20140602
5;5;20140603
5;5;20140604
5;5;20140605
5;5;20140606
5;5;20140609
5;5;20140610
5;5;20140611
5;5;20140612
5;5;20140613
5;5;20140616
5;5;20140617
5;5;20140618
5;5;20140620
5;5;20140623
5;5;20140624
5;5;20140625
5;5;20140626
5;5;20140627
5;5;20140630
5;5;20140701
5;5;20140703
5;5;20140704
5;5;20140707
5;5;20140708
5;5;20140710
5;5;20140711
5;5;20140714
5;5;20140715
5;5;20140716
5;5;20140717
5;5;20140718
5;5;20140721
5;5;20140722
5;5;20140723
5;5;20140724
5;5;20140725
5;5;20140728
5;5;20140729
5;5;20140730
5;5;20140731
5;5;20140801
5;5;20140804
5;4;20140805
4;4;20140806
4;4;20140807
4;4;20140808
4;4;20140811
4;4;20140812
4;4;20140813
4;4;20140814
4;4;20140818
4;4;20140819
4;4;20140820
4;4;20140821
4;4;20140822
4;5;20140825
5;5;20140826
5;5;20140827
5;5;20140828
5;5;20140829
5;5;20140901
5;5;20140902
5;5;20140903
5;5;20140904
5;5;20140905
5;5;20140908
5;5;20140909
5;5;20140910
5;5;20140911
5;5;20140912
5;5;20140915
5;5;20140916
5;5;20140917
5;5;20140918
5;5;20140919
5;5;20140922
5;5;20140923
5;5;20140924
5;5;20140925
5;5;20140929
5;5;20140930
5;5;20141001
5;5;20141002
5;5;20141003
5;5;20141006
5;5;20141007
5;5;20141008
5;4;20141009
4;4;20141010
4;4;20141013
4;4;20141014
4;4;20141015
4;4;20141016
4;4;20141017
4;4;20141020
4;4;20141021
4;4;20141022
4;4;20141023
4;4;20141024
4;4;20141027
4;4;20141028
4;4;20141029
4;4;20141030
4;4;20141031
4;4;20141103
4;4;20141104
4;4;20141105
4;4;20141106
4;4;20141107
4;4;20141110
4;4;20141112
4;4;20141113
4;4;20141114
4;4;20141117
4;4;20141118
4;4;20141119
4;4;20141120
4;4;20141121
4;4;20141124
4;4;20141125
4;4;20141126
4;4;20141127
4;4;20141128
4;4;20141201
4;4;20141202
4;4;20141203
4;4;20141204
4;4;20141205
4;4;20141208
4;4;20141209
4;4;20141210
4;4;20141211
4;4;20141212
4;4;20141215
4;4;20141216
4;4;20141217
4;4;20141218
4;4;20141219
4;3;20141222
3;3;20141223
3;3;20141229
3;4;20141230
