From;To;Date
23;59;20091013
59;81;20091014
81;100;20091015
100;92;20091016
92;79;20091019
79;67;20091020
67;58;20091021
58;70;20091022
70;62;20091023
62;60;20091026
60;60;20091027
60;55;20091028
55;61;20091029
61;56;20091030
56;58;20091102
58;52;20091103
52;47;20091104
47;51;20091105
51;48;20091106
48;47;20091109
47;52;20091110
52;61;20091112
61;56;20091113
56;56;20091116
56;49;20091117
49;54;20091118
54;52;20091119
52;50;20091123
50;45;20091124
45;46;20091125
46;42;20091126
42;45;20091127
45;43;20091130
43;42;20091201
42;38;20091202
38;42;20091203
42;38;20091204
38;39;20091207
39;39;20091208
39;35;20091209
35;34;20091210
34;37;20091211
37;39;20091214
39;37;20091215
37;37;20091217
37;37;20091218
37;32;20091221
32;36;20091222
36;32;20091228
32;39;20091229
39;40;20091230
40;43;20100105
43;36;20100106
36;43;20100107
43;43;20100108
43;45;20100111
45;42;20100113
42;42;20100114
42;40;20100115
40;39;20100118
39;41;20100119
41;43;20100121
43;54;20100122
54;48;20100125
48;50;20100126
50;47;20100127
47;48;20100128
48;43;20100129
43;45;20100201
45;43;20100202
43;40;20100203
40;40;20100204
40;39;20100205
39;40;20100208
40;39;20100209
39;41;20100210
41;40;20100211
40;41;20100212
41;39;20100215
39;41;20100216
41;48;20100217
48;46;20100219
46;44;20100222
44;45;20100223
45;44;20100224
44;46;20100225
46;46;20100226
46;49;20100301
49;47;20100302
47;43;20100303
43;43;20100304
43;42;20100305
42;40;20100308
40;40;20100309
40;40;20100310
40;42;20100311
42;42;20100312
42;45;20100315
45;48;20100316
48;47;20100317
47;46;20100318
46;47;20100319
47;44;20100322
44;42;20100323
42;42;20100324
42;42;20100325
42;41;20100326
41;40;20100329
40;42;20100330
42;41;20100331
41;40;20100401
40;40;20100406
40;41;20100407
41;41;20100408
41;41;20100409
41;42;20100412
42;38;20100413
38;41;20100414
41;42;20100415
42;42;20100420
42;41;20100421
41;43;20100422
43;43;20100423
43;40;20100426
40;41;20100427
41;41;20100428
41;43;20100429
43;43;20100430
43;42;20100505
42;42;20100506
42;42;20100507
42;42;20100512
42;42;20100517
42;39;20100518
39;32;20100519
32;36;20100520
36;39;20100521
39;41;20100524
41;40;20100525
40;37;20100526
37;34;20100527
34;34;20100528
34;34;20100601
34;32;20100604
32;32;20100607
32;32;20100608
32;33;20100609
33;30;20100610
30;32;20100611
32;33;20100615
33;33;20100617
33;33;20100622
33;32;20100623
32;32;20100624
32;32;20100629
32;31;20100630
31;32;20100701
32;32;20100706
32;32;20100709
32;30;20100713
30;29;20100714
29;29;20100715
29;31;20100716
31;30;20100720
30;29;20100723
29;29;20100727
29;29;20100729
29;29;20100802
29;28;20100803
28;26;20100804
26;29;20100805
29;26;20100806
26;26;20100809
26;26;20100811
26;29;20100812
29;29;20100813
29;27;20100817
27;25;20100818
25;25;20100823
25;25;20100825
25;29;20100830
29;25;20100902
25;26;20100903
26;28;20100906
28;25;20100907
25;29;20100908
29;29;20100909
29;31;20100913
31;29;20100915
29;31;20100916
31;31;20100917
31;32;20100921
32;34;20100923
34;33;20100924
33;33;20100927
33;34;20100929
34;33;20100930
33;31;20101001
31;31;20101006
31;31;20101011
31;31;20101015
31;30;20101018
30;26;20101019
26;26;20101020
26;24;20101021
24;25;20101022
25;26;20101026
26;26;20101027
26;27;20101028
27;27;20101029
27;26;20101102
26;27;20101103
27;26;20101104
26;27;20101105
27;27;20101108
27;27;20101109
27;27;20101110
27;28;20101112
28;30;20101115
30;30;20101116
30;29;20101117
29;32;20101118
32;32;20101119
32;36;20101122
36;33;20101123
33;30;20101125
30;32;20101126
32;30;20101129
30;29;20101130
29;29;20101201
29;31;20101202
31;31;20101203
31;30;20101206
30;30;20101207
30;29;20101208
29;29;20101210
29;29;20101213
29;30;20101214
30;31;20101215
31;33;20101216
33;37;20101217
37;33;20101220
33;37;20101221
37;34;20101222
34;32;20101223
32;30;20101228
30;31;20101229
31;45;20110103
45;43;20110104
43;39;20110105
39;41;20110107
41;38;20110110
38;35;20110111
35;34;20110112
34;34;20110113
34;34;20110114
34;38;20110117
38;37;20110118
37;34;20110119
34;33;20110120
33;33;20110121
33;35;20110124
35;33;20110125
33;33;20110126
33;34;20110127
34;33;20110128
33;33;20110131
33;32;20110201
32;30;20110202
30;29;20110203
29;29;20110204
29;31;20110207
31;29;20110208
29;30;20110209
30;30;20110211
30;30;20110214
30;28;20110215
28;28;20110216
28;27;20110217
27;27;20110218
27;28;20110221
28;29;20110222
29;27;20110223
27;26;20110224
26;28;20110225
28;30;20110228
30;30;20110301
30;29;20110302
29;30;20110303
30;30;20110304
30;30;20110307
30;31;20110308
31;32;20110309
32;29;20110311
29;30;20110314
30;30;20110315
30;29;20110316
29;30;20110317
30;31;20110318
31;30;20110321
30;30;20110322
30;30;20110323
30;30;20110324
30;30;20110325
30;30;20110328
30;30;20110330
30;30;20110331
30;30;20110401
30;31;20110404
31;31;20110405
31;31;20110406
31;30;20110407
30;31;20110408
31;29;20110412
29;30;20110413
30;29;20110414
29;28;20110415
28;28;20110418
28;28;20110419
28;28;20110420
28;28;20110421
28;32;20110426
32;30;20110427
30;30;20110428
30;29;20110429
29;29;20110502
29;27;20110504
27;27;20110505
27;28;20110506
28;28;20110510
28;29;20110511
29;28;20110512
28;28;20110513
28;27;20110516
27;30;20110517
30;30;20110518
30;29;20110519
29;29;20110520
29;28;20110523
28;28;20110525
28;27;20110526
27;28;20110527
28;28;20110530
28;28;20110531
28;27;20110601
27;26;20110602
26;29;20110603
29;26;20110606
26;27;20110607
27;28;20110608
28;27;20110609
27;26;20110613
26;27;20110614
27;28;20110616
28;28;20110617
28;28;20110620
28;27;20110622
27;28;20110624
28;27;20110627
27;27;20110628
27;28;20110629
28;28;20110630
28;27;20110701
27;27;20110705
27;28;20110706
28;27;20110707
27;26;20110708
26;27;20110711
27;28;20110712
28;28;20110713
28;26;20110718
26;27;20110719
27;27;20110720
27;26;20110721
26;26;20110725
26;26;20110727
26;26;20110728
26;26;20110729
26;25;20110801
25;25;20110802
25;25;20110803
25;23;20110804
23;21;20110805
21;20;20110808
20;20;20110809
20;20;20110810
20;20;20110811
20;21;20110812
21;19;20110816
19;23;20110817
23;22;20110818
22;23;20110819
23;23;20110822
23;22;20110824
22;22;20110825
22;21;20110826
21;20;20110829
20;22;20110830
22;25;20110901
25;23;20110902
23;25;20110905
25;22;20110906
22;21;20110907
21;21;20110908
21;21;20110909
21;21;20110912
21;21;20110913
21;21;20110914
21;23;20110915
23;25;20110916
25;26;20110919
26;26;20110920
26;26;20110922
26;25;20110923
25;25;20110926
25;25;20110927
25;25;20110928
25;25;20110929
25;25;20110930
25;25;20111003
25;25;20111004
25;25;20111007
25;24;20111010
24;23;20111011
23;23;20111012
23;25;20111014
25;24;20111024
24;22;20111025
22;22;20111026
22;23;20111027
23;24;20111028
24;24;20111031
24;23;20111102
23;23;20111107
23;23;20111108
23;23;20111109
23;22;20111110
22;23;20111114
23;23;20111115
23;23;20111116
23;22;20111117
22;22;20111118
22;21;20111121
21;20;20111122
20;19;20111123
19;19;20111128
19;20;20111129
20;20;20111130
20;20;20111201
20;20;20111202
20;21;20111205
21;23;20111206
23;23;20111207
23;23;20111208
23;23;20111209
23;23;20111212
23;24;20111213
24;27;20111214
27;26;20111215
26;27;20111216
27;25;20111219
25;24;20111220
24;23;20111222
23;23;20111223
23;27;20111227
27;28;20111228
28;30;20111229
30;31;20111230
31;28;20120102
28;25;20120105
25;25;20120109
25;24;20120110
24;24;20120111
24;27;20120112
27;24;20120113
24;24;20120116
24;26;20120117
26;25;20120118
25;25;20120119
25;24;20120120
24;23;20120124
23;23;20120125
23;23;20120126
23;23;20120130
23;23;20120131
23;23;20120201
23;23;20120202
23;24;20120203
24;23;20120206
23;22;20120207
22;22;20120208
22;24;20120210
24;24;20120213
24;25;20120214
25;25;20120215
25;24;20120216
24;25;20120217
25;25;20120220
25;25;20120221
25;25;20120222
25;25;20120223
25;25;20120224
25;25;20120227
25;25;20120229
25;25;20120301
25;26;20120302
26;28;20120305
28;27;20120306
27;27;20120307
27;27;20120308
27;26;20120309
26;25;20120312
25;26;20120313
26;28;20120314
28;28;20120316
28;28;20120319
28;28;20120320
28;28;20120321
28;28;20120322
28;28;20120323
28;27;20120327
27;27;20120328
27;26;20120329
26;28;20120330
28;28;20120402
28;27;20120405
27;27;20120410
27;26;20120411
26;26;20120412
26;27;20120413
27;30;20120416
30;31;20120417
31;31;20120418
31;29;20120419
29;31;20120420
31;32;20120423
32;32;20120424
32;32;20120425
32;30;20120426
30;31;20120427
31;30;20120430
30;31;20120502
31;30;20120504
30;31;20120507
31;31;20120508
31;31;20120509
31;30;20120510
30;30;20120511
30;30;20120514
30;29;20120515
29;30;20120516
30;28;20120517
28;28;20120521
28;29;20120522
29;29;20120523
29;30;20120524
30;28;20120525
28;27;20120529
27;27;20120530
27;27;20120531
27;27;20120601
27;27;20120604
27;25;20120605
25;23;20120606
23;25;20120608
25;26;20120611
26;24;20120612
24;24;20120618
24;24;20120619
24;25;20120622
25;25;20120625
25;28;20120626
28;27;20120627
27;26;20120628
26;25;20120704
25;25;20120705
25;25;20120709
25;25;20120710
25;25;20120711
25;22;20120712
22;20;20120713
20;22;20120716
22;22;20120718
22;22;20120719
22;22;20120720
22;20;20120723
20;21;20120724
21;19;20120725
19;21;20120726
21;21;20120803
21;20;20120814
20;22;20120817
22;22;20120820
22;21;20120822
21;22;20120824
22;20;20120827
20;21;20120829
21;22;20120830
22;23;20120831
23;22;20120903
22;21;20120905
21;21;20120906
21;22;20120907
22;22;20120911
22;23;20120912
23;24;20120913
24;25;20120914
25;25;20120917
25;25;20120919
25;25;20121001
25;23;20121004
23;25;20121012
25;25;20121015
25;23;20121023
23;24;20121024
24;24;20121026
24;23;20121031
23;22;20121102
22;22;20121107
22;22;20121112
22;24;20121113
24;23;20121119
23;20;20121122
20;19;20121127
19;20;20121130
20;20;20121203
20;20;20121204
20;20;20121205
20;20;20121206
20;23;20121207
23;24;20121210
24;24;20121211
24;22;20121212
22;20;20121213
20;22;20121214
22;22;20121217
22;22;20121218
22;20;20121219
20;18;20121220
18;18;20121221
18;20;20121227
20;20;20121228
20;20;20130102
20;20;20130103
20;20;20130104
20;20;20130107
20;20;20130108
20;20;20130109
20;20;20130110
20;19;20130111
19;18;20130114
18;20;20130115
20;17;20130116
17;19;20130117
19;20;20130118
20;19;20130121
19;19;20130122
19;19;20130123
19;21;20130124
21;20;20130125
20;21;20130128
21;21;20130129
21;21;20130130
21;21;20130131
21;20;20130201
20;20;20130204
20;21;20130205
21;19;20130206
19;20;20130207
20;20;20130208
20;20;20130211
20;20;20130212
20;20;20130213
20;21;20130214
21;21;20130215
21;23;20130218
23;25;20130219
25;25;20130220
25;25;20130221
25;24;20130222
24;24;20130225
24;24;20130226
24;24;20130227
24;24;20130228
24;23;20130301
23;18;20130304
18;20;20130305
20;20;20130306
20;20;20130307
20;20;20130308
20;20;20130311
20;18;20130312
18;18;20130313
18;19;20130314
19;20;20130315
20;20;20130318
20;20;20130319
20;20;20130320
20;20;20130321
20;20;20130322
20;19;20130325
19;20;20130326
20;20;20130327
20;20;20130328
20;17;20130402
17;17;20130403
17;19;20130404
19;19;20130405
19;20;20130408
20;20;20130409
20;19;20130410
19;20;20130411
20;20;20130412
20;22;20130415
22;22;20130417
22;20;20130418
20;20;20130419
20;20;20130422
20;20;20130423
20;20;20130424
20;19;20130425
19;19;20130426
19;19;20130429
19;19;20130430
19;20;20130502
20;20;20130506
20;20;20130507
20;19;20130508
19;20;20130509
20;20;20130510
20;20;20130513
20;19;20130514
19;20;20130515
20;20;20130516
20;20;20130517
20;16;20130520
16;19;20130521
19;18;20130522
18;18;20130523
18;18;20130524
18;17;20130527
17;19;20130528
19;19;20130529
19;20;20130531
20;20;20130603
20;20;20130604
20;20;20130605
20;20;20130606
20;19;20130607
19;19;20130610
19;19;20130611
19;19;20130612
19;19;20130613
19;19;20130614
19;19;20130617
19;19;20130618
19;19;20130619
19;19;20130620
19;19;20130621
19;19;20130624
19;13;20130625
13;12;20130626
12;12;20130627
12;12;20130628
12;12;20130701
12;11;20130702
11;10;20130703
10;11;20130704
11;10;20130705
10;10;20130708
10;11;20130709
11;11;20130710
11;11;20130711
11;10;20130712
10;9;20130715
9;9;20130716
9;9;20130717
9;9;20130718
9;9;20130719
9;9;20130722
9;9;20130723
9;9;20130724
9;9;20130725
9;9;20130726
9;9;20130729
9;9;20130730
9;9;20130731
9;9;20130801
9;9;20130802
9;9;20130805
9;9;20130806
9;10;20130807
10;10;20130808
10;13;20130809
13;12;20130812
12;13;20130813
13;13;20130814
13;13;20130816
13;11;20130819
11;11;20130820
11;12;20130821
12;12;20130822
12;12;20130823
12;12;20130826
12;11;20130827
11;11;20130828
11;11;20130829
11;11;20130830
11;11;20130902
11;10;20130903
10;11;20130904
11;10;20130905
10;11;20130906
11;10;20130909
10;11;20130910
11;10;20130911
10;11;20130912
11;11;20130913
11;10;20130916
10;11;20130917
11;10;20130918
10;10;20130919
10;10;20130920
10;10;20130923
10;10;20130924
10;10;20130925
10;10;20130926
10;10;20130927
10;10;20130930
10;9;20131001
9;10;20131002
10;10;20131003
10;10;20131004
10;10;20131007
10;10;20131008
10;10;20131009
10;10;20131010
10;13;20131011
13;16;20131014
16;15;20131015
15;15;20131016
15;14;20131017
14;13;20131018
13;14;20131021
14;14;20131022
14;13;20131023
13;13;20131024
13;12;20131025
12;11;20131028
11;11;20131029
11;12;20131030
12;12;20131031
12;12;20131104
12;13;20131105
13;12;20131106
12;12;20131107
12;12;20131108
12;12;20131112
12;11;20131113
11;12;20131114
12;12;20131115
12;12;20131118
12;12;20131119
12;11;20131120
11;11;20131121
11;11;20131122
11;11;20131125
11;11;20131126
11;11;20131127
11;12;20131128
12;12;20131129
12;11;20131202
11;11;20131203
11;11;20131204
11;11;20131205
11;11;20131206
11;11;20131209
11;11;20131210
11;11;20131211
11;11;20131212
11;11;20131213
11;11;20131216
11;11;20131217
11;11;20131218
11;10;20131219
10;10;20131220
10;10;20131223
10;11;20131227
11;11;20131230
11;12;20140102
12;12;20140103
12;12;20140107
12;13;20140108
13;13;20140109
13;13;20140110
13;13;20140113
13;13;20140114
13;13;20140115
13;13;20140116
13;12;20140117
12;12;20140120
12;11;20140121
11;12;20140122
12;12;20140123
12;12;20140124
12;11;20140127
11;12;20140128
12;12;20140129
12;12;20140130
12;11;20140131
11;11;20140203
11;11;20140204
11;11;20140205
11;11;20140206
11;11;20140207
11;11;20140210
11;12;20140211
12;11;20140212
11;12;20140213
12;11;20140214
11;10;20140217
10;11;20140218
11;11;20140219
11;11;20140220
11;11;20140221
11;11;20140224
11;11;20140225
11;11;20140226
11;10;20140227
10;10;20140228
10;10;20140303
10;10;20140304
10;10;20140305
10;10;20140306
10;10;20140307
10;10;20140310
10;10;20140311
10;9;20140312
9;9;20140313
9;9;20140314
9;9;20140317
9;9;20140318
9;9;20140319
9;9;20140320
9;9;20140321
9;9;20140324
9;9;20140325
9;9;20140326
9;9;20140327
9;9;20140328
9;8;20140331
8;8;20140401
8;7;20140402
7;7;20140417
7;7;20140422
7;6;20140423
6;7;20140424
7;6;20140425
6;6;20140428
6;7;20140429
7;7;20140430
7;7;20140502
7;6;20140505
6;6;20140506
6;6;20140507
6;6;20140508
6;6;20140509
6;5;20140512
5;5;20140513
5;4;20140514
4;4;20140515
4;4;20140516
4;3;20140519
3;3;20140520
3;4;20140521
4;4;20140522
4;4;20140523
4;4;20140526
4;3;20140527
3;3;20140528
3;4;20140529
4;3;20140530
3;3;20140602
3;3;20140603
3;3;20140604
3;3;20140605
3;3;20140606
3;3;20140609
3;3;20140610
3;3;20140611
3;3;20140612
3;3;20140613
3;3;20140616
3;3;20140617
3;3;20140618
3;3;20140620
3;3;20140623
3;3;20140624
3;3;20140625
3;3;20140626
3;3;20140627
3;3;20140630
3;3;20140701
3;3;20140702
3;3;20140703
3;3;20140704
3;3;20140707
3;3;20140708
3;3;20140709
3;3;20140710
3;3;20140711
3;3;20140715
3;3;20140716
3;3;20140717
3;3;20140718
3;3;20140721
3;3;20140722
3;3;20140723
3;3;20140724
3;3;20140725
3;3;20140728
3;3;20140729
3;3;20140730
3;3;20140731
3;3;20140801
3;3;20140804
3;3;20140805
3;3;20140806
3;3;20140807
3;3;20140808
3;3;20140811
3;3;20140813
3;3;20140814
3;3;20140818
3;3;20140819
3;3;20140820
3;2;20140821
2;2;20140822
2;2;20140825
2;2;20140826
2;2;20140827
2;2;20140828
2;2;20140829
2;2;20140901
2;2;20140902
2;2;20140903
2;2;20140904
2;2;20140905
2;2;20140908
2;3;20140909
3;2;20140910
2;2;20140911
2;2;20140912
2;2;20140915
2;2;20140916
2;2;20140917
2;2;20140918
2;2;20140919
2;2;20140922
2;2;20140923
2;2;20140924
2;2;20140925
2;2;20140926
2;2;20140929
2;2;20140930
2;2;20141001
2;2;20141002
2;2;20141003
2;2;20141006
2;2;20141007
2;2;20141008
2;2;20141009
2;2;20141010
2;2;20141013
2;2;20141014
2;2;20141015
2;2;20141016
2;2;20141017
2;2;20141020
2;2;20141021
2;2;20141022
2;2;20141023
2;2;20141024
2;2;20141027
2;2;20141028
2;1;20141029
1;2;20141030
2;2;20141031
2;2;20141103
2;2;20141104
2;2;20141105
2;2;20141106
2;2;20141107
2;2;20141110
2;2;20141112
2;2;20141113
2;2;20141114
2;2;20141117
2;1;20141118
1;2;20141119
2;2;20141120
2;2;20141121
2;2;20141124
2;1;20141125
1;2;20141126
2;1;20141127
1;2;20141128
2;2;20141201
2;2;20141202
2;2;20141203
2;2;20141204
2;2;20141205
2;2;20141208
2;2;20141209
2;1;20141210
1;1;20141211
1;1;20141212
1;1;20141215
1;1;20141216
1;1;20141217
1;1;20141218
1;1;20141219
1;1;20141222
1;1;20141223
1;1;20141229
1;1;20141230
