From;To;Date
1063;1063;20091013
1063;872;20091014
872;1687;20091015
1687;2320;20091016
2320;682;20091019
682;1544;20091020
1544;957;20091021
957;2937;20091022
2937;929;20091023
929;187;20091026
187;251;20091027
251;488;20091028
488;884;20091029
884;375;20091030
375;340;20091102
340;697;20091103
697;797;20091104
797;208;20091105
208;60;20091106
60;107;20091109
107;10;20091110
10;988;20091112
988;55;20091113
55;208;20091116
208;256;20091117
256;10;20091118
10;66;20091119
66;20;20091123
20;318;20091124
318;49;20091125
49;117;20091126
117;35;20091127
35;145;20091130
145;90;20091201
90;135;20091202
135;4;20091203
4;41;20091204
41;88;20091207
88;9;20091208
9;27;20091209
27;83;20091210
83;112;20091211
112;0;20091214
0;52;20091215
52;210;20091217
210;9;20091218
9;19;20091221
19;4;20091222
4;0;20091228
0;56;20091229
56;20;20091230
20;9;20100105
9;21;20100106
21;20;20100107
20;2;20100108
2;0;20100111
0;20;20100113
20;34;20100114
34;69;20100115
69;23;20100118
23;39;20100119
39;386;20100121
386;2786;20100122
2786;1077;20100125
1077;162;20100126
162;190;20100127
190;3;20100128
3;330;20100129
330;128;20100201
128;535;20100202
535;243;20100203
243;452;20100204
452;97;20100205
97;55;20100208
55;74;20100209
74;123;20100210
123;10;20100211
10;33;20100212
33;163;20100215
163;430;20100216
430;762;20100217
762;43;20100219
43;151;20100222
151;4;20100223
4;150;20100224
150;62;20100225
62;28;20100226
28;210;20100301
210;181;20100302
181;788;20100303
788;87;20100304
87;95;20100305
95;148;20100308
148;194;20100309
194;354;20100310
354;275;20100311
275;379;20100312
379;455;20100315
455;812;20100316
812;434;20100317
434;346;20100318
346;248;20100319
248;319;20100322
319;251;20100323
251;32;20100324
32;322;20100325
322;130;20100326
130;167;20100329
167;40;20100330
40;150;20100331
150;65;20100401
65;76;20100406
76;12;20100407
12;54;20100408
54;0;20100409
0;64;20100412
64;161;20100413
161;2;20100414
2;181;20100415
181;10;20100420
10;40;20100421
40;84;20100422
84;12;20100423
12;47;20100426
47;1;20100427
1;12;20100428
12;1;20100429
1;1;20100430
1;8;20100505
8;36;20100506
36;2;20100507
2;24;20100512
24;50;20100517
50;23;20100518
23;118;20100519
118;190;20100520
190;20;20100521
20;22;20100524
22;27;20100525
27;657;20100526
657;669;20100527
669;4;20100528
4;0;20100601
0;45;20100604
45;6;20100607
6;20;20100608
20;32;20100609
32;38;20100610
38;123;20100611
123;39;20100615
39;65;20100617
65;47;20100622
47;20;20100623
20;64;20100624
64;25;20100629
25;11;20100630
11;29;20100701
29;20;20100706
20;30;20100709
30;27;20100713
27;86;20100714
86;50;20100715
50;2;20100716
2;11;20100720
11;90;20100723
90;5;20100727
5;20;20100729
20;61;20100802
61;144;20100803
144;52;20100804
52;190;20100805
190;6;20100806
6;68;20100809
68;54;20100811
54;2;20100812
2;14;20100813
14;25;20100817
25;14;20100818
14;18;20100823
18;64;20100825
64;2;20100830
2;6;20100902
6;60;20100903
60;4;20100906
4;60;20100907
60;31;20100908
31;71;20100909
71;72;20100913
72;21;20100915
21;96;20100916
96;66;20100917
66;16;20100921
16;2;20100923
2;48;20100924
48;9;20100927
9;2;20100929
2;3;20100930
3;13;20101001
13;25;20101006
25;60;20101011
60;10;20101015
10;28;20101018
28;187;20101019
187;696;20101020
696;290;20101021
290;108;20101022
108;399;20101026
399;906;20101027
906;293;20101028
293;84;20101029
84;335;20101102
335;644;20101103
644;698;20101104
698;772;20101105
772;337;20101108
337;407;20101109
407;498;20101110
498;76;20101112
76;519;20101115
519;210;20101116
210;89;20101117
89;482;20101118
482;1146;20101119
1146;1092;20101122
1092;313;20101123
313;283;20101125
283;264;20101126
264;186;20101129
186;152;20101130
152;81;20101201
81;497;20101202
497;6;20101203
6;10;20101206
10;214;20101207
214;60;20101208
60;50;20101210
50;133;20101213
133;207;20101214
207;1114;20101215
1114;5615;20101216
5615;599;20101217
599;2;20101220
2;279;20101221
279;1813;20101222
1813;978;20101223
978;249;20101228
249;98;20101229
98;13249;20110103
13249;33243;20110104
33243;7076;20110105
7076;4119;20110107
4119;1202;20110110
1202;3910;20110111
3910;1695;20110112
1695;1090;20110113
1090;869;20110114
869;5719;20110117
5719;4464;20110118
4464;4171;20110119
4171;1007;20110120
1007;3445;20110121
3445;8434;20110124
8434;3462;20110125
3462;934;20110126
934;3663;20110127
3663;3284;20110128
3284;1421;20110131
1421;4249;20110201
4249;845;20110202
845;437;20110203
437;1999;20110204
1999;535;20110207
535;608;20110208
608;222;20110209
222;733;20110211
733;12;20110214
12;1690;20110215
1690;390;20110216
390;921;20110217
921;61;20110218
61;284;20110221
284;2443;20110222
2443;444;20110223
444;396;20110224
396;40;20110225
40;723;20110228
723;549;20110301
549;190;20110302
190;80;20110303
80;191;20110304
191;611;20110307
611;907;20110308
907;433;20110309
433;171;20110311
171;59;20110314
59;598;20110315
598;281;20110316
281;100;20110317
100;316;20110318
316;80;20110321
80;228;20110322
228;15;20110323
15;124;20110324
124;92;20110325
92;200;20110328
200;304;20110330
304;332;20110331
332;89;20110401
89;100;20110404
100;121;20110405
121;216;20110406
216;36;20110407
36;308;20110408
308;60;20110412
60;66;20110413
66;30;20110414
30;1439;20110415
1439;193;20110418
193;35;20110419
35;272;20110420
272;261;20110421
261;3852;20110426
3852;346;20110427
346;425;20110428
425;790;20110429
790;579;20110502
579;1291;20110504
1291;329;20110505
329;232;20110506
232;402;20110510
402;140;20110511
140;176;20110512
176;36;20110513
36;77;20110516
77;2360;20110517
2360;184;20110518
184;219;20110519
219;224;20110520
224;155;20110523
155;377;20110525
377;406;20110526
406;230;20110527
230;177;20110530
177;215;20110531
215;6392;20110601
6392;3054;20110602
3054;1993;20110603
1993;8091;20110606
8091;1873;20110607
1873;974;20110608
974;109;20110609
109;866;20110613
866;460;20110614
460;812;20110616
812;142;20110617
142;118;20110620
118;34;20110622
34;200;20110624
200;49;20110627
49;400;20110628
400;40;20110629
40;95;20110630
95;397;20110701
397;50;20110705
50;26;20110706
26;739;20110707
739;3;20110708
3;102;20110711
102;2569;20110712
2569;1690;20110713
1690;274;20110718
274;23;20110719
23;1220;20110720
1220;2300;20110721
2300;60;20110725
60;40;20110727
40;191;20110728
191;2;20110729
2;1959;20110801
1959;1194;20110802
1194;1922;20110803
1922;532;20110804
532;527;20110805
527;149;20110808
149;422;20110809
422;250;20110810
250;16;20110811
16;181;20110812
181;118;20110816
118;902;20110817
902;910;20110818
910;0;20110819
0;16;20110822
16;357;20110824
357;140;20110825
140;3;20110826
3;204;20110829
204;256;20110830
256;800;20110901
800;721;20110902
721;1;20110905
1;140;20110906
140;316;20110907
316;46;20110908
46;1287;20110909
1287;122;20110912
122;188;20110913
188;69;20110914
69;736;20110915
736;483;20110916
483;140;20110919
140;300;20110920
300;18;20110922
18;470;20110923
470;58;20110926
58;20;20110927
20;100;20110928
100;230;20110929
230;20;20110930
20;189;20111003
189;38;20111004
38;8;20111007
8;39;20111010
39;280;20111011
280;10;20111012
10;20;20111014
20;68;20111024
68;140;20111025
140;6;20111026
6;307;20111027
307;100;20111028
100;2;20111031
2;90;20111102
90;11;20111107
11;10;20111108
10;22;20111109
22;90;20111110
90;1;20111114
1;2;20111115
2;81;20111116
81;42;20111117
42;2;20111118
2;30;20111121
30;512;20111122
512;113;20111123
113;59;20111128
59;2;20111129
2;63;20111130
63;0;20111201
0;0;20111202
0;293;20111205
293;442;20111206
442;234;20111207
234;310;20111208
310;283;20111209
283;326;20111212
326;137;20111213
137;410;20111214
410;280;20111215
280;111;20111216
111;156;20111219
156;100;20111220
100;180;20111222
180;4;20111223
4;984;20111227
984;1487;20111228
1487;3196;20111229
3196;3650;20111230
3650;552;20120102
552;104;20120105
104;15;20120109
15;300;20120110
300;2;20120111
2;0;20120112
0;7;20120113
7;120;20120116
120;64;20120117
64;0;20120118
0;40;20120119
40;353;20120120
353;11;20120124
11;79;20120125
79;192;20120126
192;31;20120130
31;178;20120131
178;2;20120201
2;0;20120202
0;11;20120203
11;0;20120206
0;173;20120207
173;397;20120208
397;0;20120210
0;0;20120213
0;347;20120214
347;0;20120215
0;50;20120216
50;2;20120217
2;2;20120220
2;1;20120221
1;1;20120222
1;0;20120223
0;0;20120224
0;76;20120227
76;378;20120229
378;0;20120301
0;32;20120302
32;140;20120305
140;75;20120306
75;6;20120307
6;2179;20120308
2179;308;20120309
308;40;20120312
40;0;20120313
0;1661;20120314
1661;0;20120316
0;0;20120319
0;0;20120320
0;0;20120321
0;199;20120322
199;0;20120323
0;2;20120327
2;2;20120328
2;11;20120329
11;77;20120330
77;2;20120402
2;2;20120405
2;1;20120410
1;396;20120411
396;2087;20120412
2087;4068;20120413
4068;3463;20120416
3463;17601;20120417
17601;33041;20120418
33041;24715;20120419
24715;36370;20120420
36370;51427;20120423
51427;62847;20120424
62847;42914;20120425
42914;20718;20120426
20718;34562;20120427
34562;579;20120430
579;490;20120502
490;975;20120504
975;15634;20120507
15634;20031;20120508
20031;4042;20120509
4042;753;20120510
753;516;20120511
516;917;20120514
917;727;20120515
727;545;20120516
545;40;20120517
40;67;20120521
67;1;20120522
1;482;20120523
482;67;20120524
67;330;20120525
330;0;20120529
0;0;20120530
0;0;20120531
0;0;20120601
0;0;20120604
0;239;20120605
239;21;20120606
21;82;20120608
82;61;20120611
61;142;20120612
142;0;20120618
0;102;20120619
102;30;20120622
30;1;20120625
1;601;20120626
601;100;20120627
100;101;20120628
101;36;20120704
36;198;20120705
198;0;20120709
0;40;20120710
40;202;20120711
202;561;20120712
561;240;20120713
240;2;20120716
2;0;20120718
0;0;20120719
0;0;20120720
0;129;20120723
129;1;20120724
1;40;20120725
40;2;20120726
2;40;20120803
40;500;20120814
500;161;20120817
161;6;20120820
6;3079;20120822
3079;280;20120824
280;73;20120827
73;4;20120829
4;113;20120830
113;177;20120831
177;111;20120903
111;80;20120905
80;51;20120906
51;2;20120907
2;36;20120911
36;10;20120912
10;75;20120913
75;164;20120914
164;7;20120917
7;10;20120919
10;67;20121001
67;10;20121004
10;0;20121012
0;300;20121015
300;35;20121023
35;0;20121024
0;4;20121026
4;205;20121031
205;140;20121102
140;8;20121107
8;34;20121112
34;20;20121113
20;20;20121119
20;251;20121122
251;16;20121127
16;16;20121130
16;14;20121203
14;104;20121204
104;47;20121205
47;48;20121206
48;2490;20121207
2490;161;20121210
161;70;20121211
70;846;20121212
846;80;20121213
80;56;20121214
56;1;20121217
1;301;20121218
301;966;20121219
966;80;20121220
80;400;20121221
400;300;20121227
300;1;20121228
1;2;20130102
2;0;20130103
0;1;20130104
1;11;20130107
11;7;20130108
7;4;20130109
4;222;20130110
222;4;20130111
4;400;20130114
400;0;20130115
0;1288;20130116
1288;1914;20130117
1914;44;20130118
44;86;20130121
86;0;20130122
0;20;20130123
20;788;20130124
788;669;20130125
669;1;20130128
1;11;20130129
11;0;20130130
0;1;20130131
1;114;20130201
114;1;20130204
1;1;20130205
1;81;20130206
81;1;20130207
1;1;20130208
1;1;20130211
1;0;20130212
0;50;20130213
50;357;20130214
357;276;20130215
276;1150;20130218
1150;589;20130219
589;489;20130220
489;17;20130221
17;89;20130222
89;0;20130225
0;1;20130226
1;0;20130227
0;0;20130228
0;353;20130301
353;446;20130304
446;181;20130305
181;0;20130306
0;0;20130307
0;0;20130308
0;42;20130311
42;120;20130312
120;32;20130313
32;0;20130314
0;131;20130315
131;50;20130318
50;1;20130319
1;46;20130320
46;0;20130321
0;150;20130322
150;48;20130325
48;200;20130326
200;0;20130327
0;12;20130328
12;4;20130402
4;2;20130403
2;47;20130404
47;0;20130405
0;0;20130408
0;0;20130409
0;2747;20130410
2747;23;20130411
23;0;20130412
0;0;20130415
0;0;20130417
0;0;20130418
0;0;20130419
0;42;20130422
42;0;20130423
0;0;20130424
0;0;20130425
0;0;20130426
0;0;20130429
0;0;20130430
0;0;20130502
0;25;20130506
25;0;20130507
0;68;20130508
68;0;20130509
0;0;20130510
0;0;20130513
0;25;20130514
25;0;20130515
0;0;20130516
0;1;20130517
1;20;20130520
20;1;20130521
1;14;20130522
14;0;20130523
0;0;20130524
0;22;20130527
22;2;20130528
2;0;20130529
0;144;20130531
144;0;20130603
0;2;20130604
2;0;20130605
0;0;20130606
0;4;20130607
4;0;20130610
0;6;20130611
6;0;20130612
0;0;20130613
0;0;20130614
0;7;20130617
7;0;20130618
0;10;20130619
10;0;20130620
0;0;20130621
0;0;20130624
0;17390;20130625
17390;4915;20130626
4915;1675;20130627
1675;364;20130628
364;2853;20130701
2853;2635;20130702
2635;2227;20130703
2227;445;20130704
445;1203;20130705
1203;178;20130708
178;1587;20130709
1587;436;20130710
436;1245;20130711
1245;2850;20130712
2850;4700;20130715
4700;4901;20130716
4901;845;20130717
845;464;20130718
464;525;20130719
525;185;20130722
185;200;20130723
200;11;20130724
11;3;20130725
3;356;20130726
356;725;20130729
725;300;20130730
300;458;20130731
458;4;20130801
4;710;20130802
710;620;20130805
620;274;20130806
274;120;20130807
120;2049;20130808
2049;7566;20130809
7566;5178;20130812
5178;1438;20130813
1438;1602;20130814
1602;3444;20130816
3444;3379;20130819
3379;2216;20130820
2216;323;20130821
323;366;20130822
366;1539;20130823
1539;364;20130826
364;174;20130827
174;440;20130828
440;532;20130829
532;60;20130830
60;213;20130902
213;264;20130903
264;253;20130904
253;409;20130905
409;3;20130906
3;270;20130909
270;0;20130910
0;214;20130911
214;200;20130912
200;2;20130913
2;118;20130916
118;200;20130917
200;865;20130918
865;263;20130919
263;685;20130920
685;1027;20130923
1027;906;20130924
906;444;20130925
444;887;20130926
887;0;20130927
0;4;20130930
4;710;20131001
710;385;20131002
385;934;20131003
934;50;20131004
50;582;20131007
582;256;20131008
256;438;20131009
438;188;20131010
188;19401;20131011
19401;30062;20131014
30062;17250;20131015
17250;11821;20131016
11821;3321;20131017
3321;4138;20131018
4138;1148;20131021
1148;800;20131022
800;1990;20131023
1990;1382;20131024
1382;2305;20131025
2305;8483;20131028
8483;3267;20131029
3267;12035;20131030
12035;3815;20131031
3815;1450;20131104
1450;648;20131105
648;3306;20131106
3306;1057;20131107
1057;3832;20131108
3832;1291;20131112
1291;463;20131113
463;1633;20131114
1633;191;20131115
191;689;20131118
689;823;20131119
823;1566;20131120
1566;1224;20131121
1224;775;20131122
775;201;20131125
201;1;20131126
1;3411;20131127
3411;408;20131128
408;282;20131129
282;994;20131202
994;1185;20131203
1185;425;20131204
425;318;20131205
318;532;20131206
532;632;20131209
632;1363;20131210
1363;472;20131211
472;2495;20131212
2495;1953;20131213
1953;733;20131216
733;102;20131217
102;178;20131218
178;3010;20131219
3010;1075;20131220
1075;103;20131223
103;4673;20131227
4673;1164;20131230
1164;1522;20140102
1522;10469;20140103
10469;13737;20140107
13737;2943;20140108
2943;2531;20140109
2531;4674;20140110
4674;4450;20140113
4450;366;20140114
366;513;20140115
513;9981;20140116
9981;1397;20140117
1397;421;20140120
421;2069;20140121
2069;120;20140122
120;249;20140123
249;8;20140124
8;1028;20140127
1028;498;20140128
498;270;20140129
270;12167;20140130
12167;4642;20140131
4642;35;20140203
35;642;20140204
642;326;20140205
326;1406;20140206
1406;1638;20140207
1638;3259;20140210
3259;13605;20140211
13605;9465;20140212
9465;6006;20140213
6006;12830;20140214
12830;1320;20140217
1320;1144;20140218
1144;754;20140219
754;159;20140220
159;767;20140221
767;396;20140224
396;3595;20140225
3595;225;20140226
225;939;20140227
939;3906;20140228
3906;1818;20140303
1818;332;20140304
332;1201;20140305
1201;4070;20140306
4070;100;20140307
100;914;20140310
914;1120;20140311
1120;182;20140312
182;93;20140313
93;489;20140314
489;454;20140317
454;6378;20140318
6378;6777;20140319
6777;1783;20140320
1783;471;20140321
471;4562;20140324
4562;739;20140325
739;1607;20140326
1607;1045;20140327
1045;2247;20140328
2247;5101;20140331
5101;240;20140401
240;1676;20140402
1676;475;20140417
475;8100;20140422
8100;350;20140423
350;287;20140424
287;173;20140425
173;3022;20140428
3022;1315;20140429
1315;131;20140430
131;47;20140502
47;432;20140505
432;547;20140506
547;143;20140507
143;158;20140508
158;1359;20140509
1359;1048;20140512
1048;4904;20140513
4904;3351;20140514
3351;2125;20140515
2125;674;20140516
674;5991;20140519
5991;1090;20140520
1090;4514;20140521
4514;842;20140522
842;9956;20140523
9956;270;20140526
270;2553;20140527
2553;641;20140528
641;39;20140529
39;1148;20140530
1148;1034;20140602
1034;201;20140603
201;495;20140604
495;3760;20140605
3760;3822;20140606
3822;2530;20140609
2530;451;20140610
451;795;20140611
795;3246;20140612
3246;202;20140613
202;1598;20140616
1598;3980;20140617
3980;1633;20140618
1633;1358;20140620
1358;1532;20140623
1532;229;20140624
229;124;20140625
124;5;20140626
5;132;20140627
132;3498;20140630
3498;5110;20140701
5110;4299;20140702
4299;3529;20140703
3529;2515;20140704
2515;1577;20140707
1577;873;20140708
873;133;20140709
133;838;20140710
838;3;20140711
3;3312;20140715
3312;921;20140716
921;1086;20140717
1086;1101;20140718
1101;345;20140721
345;2196;20140722
2196;1514;20140723
1514;154;20140724
154;1;20140725
1;2525;20140728
2525;4262;20140729
4262;2566;20140730
2566;2265;20140731
2265;4060;20140801
4060;75;20140804
75;661;20140805
661;3311;20140806
3311;123;20140807
123;81;20140808
81;1021;20140811
1021;2635;20140813
2635;166;20140814
166;885;20140818
885;1;20140819
1;3291;20140820
3291;3942;20140821
3942;1161;20140822
1161;83;20140825
83;2013;20140826
2013;909;20140827
909;2;20140828
2;2;20140829
2;102;20140901
102;6047;20140902
6047;5362;20140903
5362;6171;20140904
6171;650;20140905
650;9518;20140908
9518;13878;20140909
13878;17235;20140910
17235;2858;20140911
2858;1295;20140912
1295;1608;20140915
1608;1;20140916
1;6474;20140917
6474;2497;20140918
2497;8356;20140919
8356;600;20140922
600;2905;20140923
2905;2747;20140924
2747;2570;20140925
2570;3957;20140926
3957;4813;20140929
4813;4762;20140930
4762;5316;20141001
5316;5287;20141002
5287;797;20141003
797;643;20141006
643;4895;20141007
4895;9115;20141008
9115;11;20141009
11;51;20141010
51;401;20141013
401;1503;20141014
1503;1759;20141015
1759;1671;20141016
1671;2502;20141017
2502;2;20141020
2;379;20141021
379;3349;20141022
3349;1;20141023
1;4350;20141024
4350;1;20141027
1;1;20141028
1;15158;20141029
15158;22;20141030
22;15191;20141031
15191;1250;20141103
1250;3423;20141104
3423;1074;20141105
1074;1121;20141106
1121;2248;20141107
2248;5841;20141110
5841;556;20141112
556;8;20141113
8;1120;20141114
1120;6224;20141117
6224;11282;20141118
11282;2907;20141119
2907;1341;20141120
1341;2410;20141121
2410;1784;20141124
1784;2144;20141125
2144;15;20141126
15;1406;20141127
1406;232;20141128
232;305;20141201
305;15;20141202
15;243;20141203
243;1062;20141204
1062;402;20141205
402;4629;20141208
4629;1;20141209
1;4;20141210
4;604;20141211
604;283;20141212
283;1283;20141215
1283;1273;20141216
1273;1;20141217
1;3415;20141218
3415;6301;20141219
6301;22882;20141222
22882;6064;20141223
6064;3663;20141229
3663;2037;20141230
