From;To;Date
7,4303;6,5161;20081218
6,5161;7,0899;20081219
7,0899;6,8371;20081222
6,8371;6,7982;20081223
6,7982;6,9538;20081229
6,9538;6,9538;20081230
6,9538;6,9927;20081231
6,9927;7,0024;20090105
7,0024;7,4401;20090106
7,4401;7,0997;20090107
7,0997;6,9635;20090108
6,9635;6,9927;20090112
6,9927;7,3817;20090113
7,3817;7,479;20090114
7,479;7,1969;20090115
7,1969;7,0997;20090116
7,0997;7,5276;20090119
7,5276;7,2358;20090120
7,2358;6,9538;20090121
6,9538;7,0997;20090122
7,0997;7,1969;20090123
7,1969;6,7884;20090126
6,7884;6,7495;20090127
6,7495;6,7884;20090128
6,7884;6,7106;20090129
6,7106;6,6134;20090130
6,6134;6,1174;20090202
6,1174;5,8353;20090203
5,8353;5,6603;20090204
5,6603;5,5825;20090205
5,5825;5,9618;20090206
5,9618;6,0007;20090209
6,0007;6,3508;20090210
6,3508;6,3605;20090211
6,3605;6,5161;20090212
6,5161;6,5842;20090213
6,5842;5,8353;20090216
5,8353;5,2713;20090217
5,2713;5,1351;20090218
5,1351;5,2421;20090219
5,2421;5,2421;20090220
5,2421;5,2226;20090223
5,2226;5,7381;20090224
5,7381;5,8353;20090225
5,8353;6,1174;20090226
6,1174;6,0298;20090227
6,0298;5,8742;20090302
5,8742;5,6214;20090303
5,6214;5,8256;20090304
5,8256;6,0785;20090305
6,0785;6,0785;20090306
6,0785;5,7381;20090309
5,7381;5,7478;20090310
5,7478;5,8353;20090311
5,8353;5,8353;20090312
5,8353;6,6037;20090313
6,6037;6,2244;20090316
6,2244;6,4189;20090317
6,4189;6,5648;20090318
6,5648;6,7106;20090319
6,7106;6,7884;20090320
6,7884;7,1969;20090323
7,1969;7,1969;20090324
7,1969;7,1483;20090325
7,1483;7,4887;20090326
7,4887;7,3914;20090327
7,3914;7,3914;20090330
7,3914;7,3914;20090331
7,3914;7,0024;20090401
7,0024;7,4887;20090402
7,4887;7,4887;20090403
7,4887;7,5179;20090406
7,5179;7,5859;20090407
7,5859;7,6832;20090408
7,6832;8,0722;20090409
8,0722;7,7318;20090414
7,7318;7,7707;20090415
7,7707;8,0625;20090416
8,0625;8,0722;20090417
8,0722;7,6346;20090420
7,6346;7,6832;20090421
7,6832;8,3154;20090422
8,3154;8,8114;20090423
8,8114;9,0934;20090424
9,0934;8,8016;20090427
8,8016;11,184;20090428
11,184;11,641;20090429
11,641;11,476;20090430
11,476;11,476;20090504
11,476;11,671;20090505
11,671;11,622;20090506
11,622;11,476;20090507
11,476;11,321;20090508
11,321;11,768;20090511
11,768;11,671;20090512
11,671;11,136;20090513
11,136;11,087;20090514
11,087;10,795;20090515
10,795;11,184;20090518
11,184;11,476;20090519
11,476;11,671;20090520
11,671;11,748;20090521
11,748;11,768;20090522
11,768;11,768;20090525
11,768;11,855;20090526
11,855;11,69;20090527
11,69;11,7;20090528
11,7;11,817;20090529
11,817;12,157;20090601
12,157;12,157;20090602
12,157;12,215;20090603
12,215;12,497;20090604
12,497;12,546;20090605
12,546;12,643;20090608
12,643;13,567;20090609
13,567;14,083;20090610
14,083;14,394;20090612
14,394;13,908;20090615
13,908;13,908;20090616
13,908;14,053;20090617
14,053;13,509;20090618
13,509;12,779;20090619
12,779;13,032;20090622
13,032;12,643;20090623
12,643;12,449;20090624
12,449;12,449;20090625
12,449;12,711;20090626
12,711;12,4;20090629
12,4;14,102;20090630
14,102;14,384;20090701
14,384;14,287;20090702
14,287;13,966;20090703
13,966;14,092;20090706
14,092;13,781;20090707
13,781;13,324;20090708
13,324;13,81;20090709
13,81;13,616;20090710
13,616;13,81;20090713
13,81;13,664;20090714
13,664;13,616;20090715
13,616;13,995;20090716
13,995;13,674;20090717
13,674;13,956;20090720
13,956;14,199;20090721
14,199;14,442;20090722
14,442;14,442;20090723
14,442;14,452;20090724
14,452;14,345;20090727
14,345;14,335;20090728
14,335;14,335;20090729
14,335;14,326;20090730
14,326;13,859;20090731
13,859;13,567;20090803
13,567;13,713;20090804
13,713;13,81;20090805
13,81;14,102;20090806
14,102;14,102;20090807
14,102;14,326;20090810
14,326;15,075;20090811
15,075;14,977;20090812
14,977;14,627;20090813
14,627;14,637;20090814
14,637;15,026;20090817
15,026;15,075;20090818
15,075;15,075;20090819
15,075;16,339;20090820
16,339;17,078;20090821
17,078;16,251;20090824
16,251;17,876;20090825
17,876;18,965;20090826
18,965;17,866;20090827
17,866;19,441;20090828
19,441;18,965;20090831
18,965;18,965;20090901
18,965;17,749;20090902
17,749;17,506;20090903
17,506;17,506;20090904
17,506;17,029;20090907
17,029;17,895;20090908
17,895;17,895;20090909
17,895;17,117;20090910
17,117;16,757;20090911
16,757;16,738;20090914
16,738;17,341;20090915
17,341;17,341;20090916
17,341;17,603;20090917
17,603;17,214;20090918
17,214;17,506;20090921
17,506;17,506;20090922
17,506;17,117;20090923
17,117;17,409;20090924
17,409;16,825;20090925
16,825;16,339;20090928
16,339;16,047;20090929
16,047;16,047;20090930
16,047;15,58;20091001
15,58;15,58;20091002
15,58;15,58;20091005
15,58;16,436;20091006
16,436;16,631;20091007
16,631;16,631;20091008
16,631;17,253;20091009
17,253;17,214;20091012
17,214;17,496;20091013
17,496;17,311;20091014
17,311;17,496;20091015
17,496;17,409;20091016
17,409;17,409;20091019
17,409;16,922;20091020
16,922;16,242;20091021
16,242;16,533;20091022
16,533;16,164;20091023
16,164;15,814;20091026
15,814;15,678;20091027
15,678;15,707;20091028
15,707;15,687;20091029
15,687;16,524;20091030
16,524;16,242;20091102
16,242;16,193;20091103
16,193;16,339;20091104
16,339;16,008;20091105
16,008;15,658;20091106
15,658;15,658;20091109
15,658;15,561;20091110
15,561;15,541;20091112
15,541;15,561;20091113
15,561;15,561;20091116
15,561;15,366;20091117
15,366;15,551;20091118
15,551;15,551;20091119
15,551;15,366;20091120
15,366;15,561;20091123
15,561;15,561;20091124
15,561;15,561;20091125
15,561;15,075;20091126
15,075;14,686;20091127
14,686;15,561;20091130
15,561;15,551;20091201
15,551;14,88;20091202
14,88;15,123;20091203
15,123;15,123;20091204
15,123;15,123;20091207
15,123;14,783;20091208
14,783;14,54;20091209
14,54;14,491;20091210
14,491;14,559;20091211
14,559;14,53;20091214
14,53;14,199;20091215
14,199;13,966;20091216
13,966;13,801;20091217
13,801;14,588;20091218
14,588;15,25;20091221
15,25;15,347;20091222
15,347;14,841;20091223
14,841;14,686;20091228
14,686;15,464;20091229
15,464;15,561;20091230
15,561;15,075;20091231
15,075;15,366;20100104
15,366;15,415;20100105
15,415;15,415;20100106
15,415;15,347;20100107
15,347;15,464;20100108
15,464;15,561;20100111
15,561;15,551;20100112
15,551;15,357;20100113
15,357;15,075;20100114
15,075;15,61;20100115
15,61;15,561;20100118
15,561;15,804;20100119
15,804;15,746;20100120
15,746;15,512;20100121
15,512;15,084;20100122
15,084;15,23;20100125
15,23;15,23;20100126
15,23;15,23;20100127
15,23;15,571;20100128
15,571;15,561;20100129
15,561;15,61;20100201
15,61;15,561;20100202
15,561;15,61;20100203
15,61;15,075;20100204
15,075;15,464;20100205
15,464;15,366;20100208
15,366;15,561;20100209
15,561;15,707;20100210
15,707;15,561;20100211
15,561;15,6;20100212
15,6;15,755;20100215
15,755;15,95;20100216
15,95;16,533;20100217
16,533;16,874;20100218
16,874;16,874;20100219
16,874;16,757;20100222
16,757;16,728;20100223
16,728;17,02;20100224
17,02;17,457;20100225
17,457;17,457;20100226
17,457;17,292;20100301
17,292;17,292;20100302
17,292;17,02;20100303
17,02;17,506;20100304
17,506;17,506;20100305
17,506;18,09;20100308
18,09;18,479;20100309
18,479;18,43;20100310
18,43;18,624;20100311
18,624;18,624;20100312
18,624;18,479;20100315
18,479;18,751;20100316
18,751;18,819;20100317
18,819;18,77;20100318
18,77;18,381;20100319
18,381;17,652;20100322
17,652;16,728;20100323
16,728;16,436;20100324
16,436;16,67;20100325
16,67;16,874;20100326
16,874;17,652;20100329
17,652;18,43;20100330
18,43;18,43;20100331
18,43;18,663;20100401
18,663;18,479;20100406
18,479;18,479;20100407
18,479;18,479;20100408
18,479;18,479;20100409
18,479;17,944;20100412
17,944;17,73;20100413
17,73;18,119;20100414
18,119;17,603;20100415
17,603;17,311;20100416
17,311;16,533;20100419
16,533;17,02;20100420
17,02;16,533;20100421
16,533;16,631;20100422
16,631;17,506;20100423
17,506;17,311;20100426
17,311;16,922;20100427
16,922;16,29;20100428
16,29;16,135;20100429
16,135;15,853;20100430
15,853;15,561;20100504
15,561;15,853;20100505
15,853;16,242;20100506
16,242;15,755;20100507
15,755;15,853;20100510
15,853;16,018;20100511
16,018;15,853;20100512
15,853;15,561;20100513
15,561;15,123;20100514
15,123;14,987;20100517
14,987;15,444;20100518
15,444;15,415;20100519
15,415;14,831;20100520
14,831;14,588;20100521
14,588;13,927;20100524
13,927;13,519;20100525
13,519;13,839;20100526
13,839;13,421;20100527
13,421;14,199;20100528
14,199;14,219;20100531
14,219;14,209;20100601
14,209;14,209;20100602
14,209;14,686;20100604
14,686;14,793;20100607
14,793;14,802;20100608
14,802;14,608;20100609
14,608;14,676;20100610
14,676;14,676;20100611
14,676;14,209;20100614
14,209;14,297;20100615
14,297;14,199;20100616
14,199;14,248;20100617
14,248;14,199;20100618
14,199;14,199;20100621
14,199;14,199;20100622
14,199;14,199;20100623
14,199;14,199;20100624
14,199;14,676;20100625
14,676;14,219;20100628
14,219;14,199;20100629
14,199;14,199;20100630
14,199;14,199;20100701
14,199;14,501;20100702
14,501;14,501;20100705
14,501;14,734;20100706
14,734;15,172;20100707
15,172;15,075;20100708
15,075;16,047;20100709
16,047;16,679;20100712
16,679;16,913;20100713
16,913;16,971;20100714
16,971;17,117;20100715
17,117;17,146;20100716
17,146;17,205;20100719
17,205;16,922;20100720
16,922;16,777;20100721
16,777;16,709;20100722
16,709;16,777;20100723
16,777;16,922;20100726
16,922;17,146;20100727
17,146;17,263;20100728
17,263;17,311;20100729
17,311;17,302;20100730
17,302;17,195;20100802
17,195;17,302;20100803
17,302;17,38;20100804
17,38;17,409;20100805
17,409;17,36;20100806
17,36;17,068;20100809
17,068;17,214;20100810
17,214;17,117;20100811
17,117;16,971;20100812
16,971;16,699;20100813
16,699;16,533;20100816
16,533;16,524;20100817
16,524;16,524;20100818
16,524;16,961;20100819
16,961;16,728;20100820
16,728;16,339;20100823
16,339;15,717;20100824
15,717;15,658;20100825
15,658;15,853;20100826
15,853;16,436;20100827
16,436;16,533;20100830
16,533;16,913;20100831
16,913;16,796;20100901
16,796;16,728;20100902
16,728;16,631;20100903
16,631;16,777;20100906
16,777;16,242;20100907
16,242;16,582;20100908
16,582;16,436;20100909
16,436;15,979;20100910
15,979;15,96;20100913
15,96;15,561;20100914
15,561;15,366;20100915
15,366;15,94;20100916
15,94;15,979;20100917
15,979;16,213;20100920
16,213;16,339;20100921
16,339;16,388;20100922
16,388;16,115;20100923
16,115;16,319;20100924
16,319;16,047;20100927
16,047;16,028;20100928
16,028;15,95;20100929
15,95;16,242;20100930
16,242;16,135;20101001
16,135;15,843;20101004
15,843;15,901;20101005
15,901;16,29;20101006
16,29;16,417;20101007
16,417;16,533;20101008
16,533;16,485;20101011
16,485;15,911;20101012
15,911;15,95;20101013
15,95;15,93;20101014
15,93;15,911;20101015
15,911;15,853;20101018
15,853;15,853;20101019
15,853;15,561;20101020
15,561;15,794;20101021
15,794;15,775;20101022
15,775;15,366;20101025
15,366;15,551;20101026
15,551;15,571;20101027
15,571;15,697;20101028
15,697;15,697;20101029
15,697;15,804;20101102
15,804;16,524;20101103
16,524;16,874;20101104
16,874;16,679;20101105
16,679;16,144;20101108
16,144;17,146;20101109
17,146;18,09;20101110
18,09;17,798;20101112
17,798;17,778;20101115
17,778;17,603;20101116
17,603;17,467;20101117
17,467;17,525;20101118
17,525;17,409;20101119
17,409;17,331;20101122
17,331;17,059;20101123
17,059;17,574;20101124
17,574;17,506;20101125
17,506;17,603;20101126
17,603;17,555;20101129
17,555;17,506;20101130
17,506;17,253;20101201
17,253;17,38;20101202
17,38;17,506;20101203
17,506;17,409;20101206
17,409;17,428;20101207
17,428;17,263;20101208
17,263;17,253;20101209
17,253;16,961;20101210
16,961;16,981;20101213
16,981;17,506;20101214
17,506;17,175;20101215
17,175;17,409;20101216
17,409;17,166;20101217
17,166;17,292;20101220
17,292;17,175;20101221
17,175;17,253;20101222
17,253;17,039;20101223
17,039;17,078;20101227
17,078;17,263;20101228
17,263;17,253;20101229
17,253;17,701;20101230
17,701;17,963;20101231
17,963;17,798;20110103
17,798;17,701;20110104
17,701;17,798;20110105
17,798;17,749;20110107
17,749;17,603;20110110
17,603;17,506;20110111
17,506;17,506;20110112
17,506;17,409;20110113
17,409;16,825;20110114
16,825;16,932;20110117
16,932;16,845;20110118
16,845;16,533;20110119
16,533;16,631;20110120
16,631;16,825;20110121
16,825;16,64;20110124
16,64;16,543;20110125
16,543;16,543;20110126
16,543;16,631;20110127
16,631;16,728;20110128
16,728;16,611;20110131
16,611;16,602;20110201
16,602;16,611;20110202
16,611;16,533;20110203
16,533;16,533;20110204
16,533;17,457;20110207
17,457;17,37;20110208
17,37;17,117;20110209
17,117;17,36;20110210
17,36;17,311;20110211
17,311;17,185;20110214
17,185;16,981;20110215
16,981;16,777;20110216
16,777;16,777;20110217
16,777;16,777;20110218
16,777;16,728;20110221
16,728;16,728;20110222
16,728;16,981;20110223
16,981;17,214;20110224
17,214;17,156;20110225
17,156;17,185;20110228
17,185;17,02;20110301
17,02;17,38;20110302
17,38;17,506;20110303
17,506;17,73;20110304
17,73;17,846;20110307
17,846;17,944;20110308
17,944;17,953;20110309
17,953;17,662;20110310
17,662;17,263;20110311
17,263;17,555;20110314
17,555;17,788;20110315
17,788;17,817;20110316
17,817;17,817;20110317
17,817;17,652;20110318
17,652;17,701;20110321
17,701;18,021;20110322
18,021;18,041;20110323
18,041;17,749;20110324
17,749;17,846;20110325
17,846;17,798;20110328
17,798;17,885;20110329
17,885;17,846;20110330
17,846;17,701;20110331
17,701;17,778;20110401
17,778;17,506;20110404
17,506;17,214;20110405
17,214;17,311;20110406
17,311;17,311;20110407
17,311;17,311;20110408
17,311;17,029;20110411
17,029;16,922;20110412
16,922;16,825;20110413
16,825;16,874;20110414
16,874;16,738;20110415
16,738;16,874;20110418
16,874;16,971;20110419
16,971;16,864;20110420
16,864;16,582;20110421
16,582;16,339;20110426
16,339;16,426;20110427
16,426;16,057;20110428
16,057;16,047;20110429
16,047;16,047;20110502
16,047;15,95;20110504
15,95;15,853;20110505
15,853;15,561;20110506
15,561;15,561;20110509
15,561;15,464;20110510
15,464;15,386;20110511
15,386;15,357;20110512
15,357;14,404;20110513
14,404;13,664;20110516
13,664;13,499;20110517
13,499;13,45;20110518
13,45;12,993;20110519
12,993;13,13;20110520
13,13;13,178;20110523
13,178;13,178;20110524
13,178;13,217;20110525
13,217;13,11;20110526
13,11;13,227;20110527
13,227;13,178;20110530
13,178;13,178;20110531
13,178;13,217;20110601
13,217;13,275;20110602
13,275;13,275;20110603
13,275;13,567;20110606
13,567;13,567;20110607
13,567;13,762;20110608
13,762;13,937;20110609
13,937;14,015;20110610
14,015;13,956;20110613
13,956;13,908;20110614
13,908;13,616;20110615
13,616;13,324;20110616
13,324;13,227;20110617
13,227;12,984;20110620
12,984;12,595;20110621
12,595;12,157;20110622
12,157;11,243;20110624
11,243;10,367;20110627
10,367;10,455;20110628
10,455;10,504;20110629
10,504;10,698;20110630
10,698;10,601;20110701
10,601;10,299;20110704
10,299;10,115;20110705
10,115;10,066;20110706
10,066;10,017;20110707
10,017;9,998;20110708
9,998;9,823;20110711
9,823;9,726;20110712
9,726;9,726;20110713
9,726;9,4435;20110714
9,4435;9,2393;20110715
9,2393;8,9475;20110718
8,9475;8,6168;20110719
8,6168;8,6071;20110720
8,6071;8,6168;20110721
8,6168;8,539;20110722
8,539;8,6363;20110725
8,6363;8,5974;20110726
8,5974;8,3834;20110727
8,3834;8,5585;20110728
8,5585;8,5099;20110729
8,5099;8,8503;20110801
8,8503;8,8503;20110802
8,8503;8,6071;20110803
8,6071;7,7804;20110804
7,7804;7,4595;20110805
7,4595;6,9051;20110808
6,9051;6,9051;20110809
6,9051;7,1872;20110810
7,1872;7,2942;20110811
7,2942;7,7804;20110812
7,7804;8,364;20110816
8,364;8,364;20110817
8,364;7,5373;20110818
7,5373;7,4887;20110819
7,4887;7,6832;20110822
7,6832;7,6832;20110823
7,6832;7,5665;20110824
7,5665;7,5859;20110825
7,5859;7,5859;20110826
7,5859;7,6832;20110829
7,6832;7,6832;20110830
7,6832;7,5762;20110831
7,5762;7,4887;20110901
7,4887;7,1483;20110902
7,1483;6,662;20110905
6,662;6,555;20110906
6,555;6,6037;20110907
6,6037;6,7301;20110908
6,7301;6,8954;20110909
6,8954;6,5161;20110912
6,5161;6,4383;20110913
6,4383;6,3411;20110914
6,3411;6,2244;20110915
6,2244;5,9326;20110916
5,9326;5,9034;20110919
5,9034;5,9131;20110920
5,9131;5,8353;20110921
5,8353;5,6214;20110922
5,6214;5,5436;20110923
5,5436;5,3782;20110926
5,3782;5,281;20110927
5,281;5,3102;20110928
5,3102;5,2032;20110929
5,2032;5,1545;20110930
5,1545;4,8725;20111003
4,8725;4,8628;20111004
4,8628;4,9503;20111005
4,9503;5,0087;20111006
5,0087;5,0087;20111007
5,0087;5,0184;20111010
5,0184;4,9892;20111011
4,9892;4,9698;20111012
4,9698;4,9698;20111013
4,9698;5,5436;20111014
5,5436;5,9715;20111017
5,9715;5,5727;20111018
5,5727;5,4949;20111019
5,4949;5,4171;20111020
5,4171;5,6895;20111021
5,6895;5,884;20111024
5,884;5,6116;20111025
5,6116;5,5144;20111026
5,5144;5,9909;20111027
5,9909;5,952;20111028
5,952;5,884;20111031
5,884;5,6408;20111102
5,6408;5,9326;20111103
5,9326;5,9618;20111104
5,9618;5,9326;20111107
5,9326;5,9326;20111108
5,9326;5,7381;20111109
5,7381;5,6408;20111110
5,6408;5,6603;20111114
5,6603;5,3491;20111115
5,3491;5,2907;20111116
5,2907;5,281;20111117
5,281;4,9795;20111118
4,9795;4,7363;20111121
4,7363;4,396;20111122
4,396;4,3181;20111123
4,3181;4,2987;20111124
4,2987;4,2695;20111125
4,2695;4,0945;20111128
4,0945;4,2695;20111129
4,2695;4,3668;20111130
4,3668;4,2695;20111201
4,2695;4,2014;20111202
4,2014;4,0847;20111205
4,0847;4,1723;20111206
4,1723;4,0847;20111207
4,0847;3,9389;20111208
3,9389;4,0069;20111209
4,0069;4,0556;20111212
4,0556;4,1723;20111213
4,1723;4,182;20111214
4,182;4,182;20111215
4,182;4,182;20111216
4,182;4,1625;20111219
4,1625;4,2306;20111220
4,2306;4,289;20111221
4,289;4,3279;20111222
4,3279;4,3376;20111223
4,3376;4,2792;20111227
4,2792;4,2792;20111228
4,2792;4,2792;20111229
4,2792;4,2792;20111230
4,2792;4,2403;20120102
4,2403;4,2695;20120103
4,2695;4,1528;20120104
4,1528;4,1723;20120105
4,1723;4,2501;20120109
4,2501;4,357;20120110
4,357;4,6877;20120111
4,6877;4,9503;20120112
4,9503;4,8628;20120113
4,8628;4,9406;20120116
4,9406;5,3491;20120117
5,3491;5,67;20120118
5,67;5,6797;20120119
5,6797;5,5436;20120120
5,5436;5,4852;20120123
5,4852;5,9715;20120124
5,9715;6,3702;20120125
6,3702;6,6912;20120126
6,6912;6,9538;20120127
6,9538;7,0024;20120130
7,0024;7,0997;20120131
7,0997;7,0413;20120201
7,0413;7,0997;20120202
7,0997;7,0997;20120203
7,0997;7,0899;20120206
7,0899;7,0024;20120207
7,0024;7,1094;20120208
7,1094;7,051;20120209
7,051;6,983;20120210
6,983;7,4887;20120213
7,4887;7,3817;20120214
7,3817;7,8583;20120215
7,8583;7,7804;20120216
7,7804;7,975;20120217
7,975;8,5488;20120220
8,5488;7,9944;20120221
7,9944;7,7804;20120222
7,7804;7,975;20120223
7,975;7,8291;20120224
7,8291;7,7707;20120227
7,7707;7,6929;20120228
7,6929;6,9538;20120229
6,9538;7,2942;20120301
7,2942;7,2844;20120302
7,2844;7,2261;20120305
7,2261;6,9343;20120306
6,9343;7,0997;20120307
7,0997;7,265;20120308
7,265;7,1969;20120309
7,1969;7,0024;20120312
7,0024;7,0024;20120313
7,0024;7,0024;20120314
7,0024;7,0024;20120315
7,0024;6,5453;20120316
6,5453;6,7982;20120319
6,7982;6,7982;20120320
6,7982;6,4189;20120321
6,4189;6,2924;20120322
6,2924;6,3994;20120323
6,3994;6,3605;20120326
6,3605;6,4967;20120327
6,4967;6,7301;20120328
6,7301;6,7982;20120329
6,7982;6,7787;20120330
6,7787;6,7982;20120402
6,7982;6,6134;20120403
6,6134;6,2438;20120404
6,2438;6,2438;20120405
6,2438;5,9229;20120410
5,9229;5,9229;20120411
5,9229;5,9034;20120412
5,9034;5,8353;20120413
5,8353;6,0104;20120416
6,0104;5,9326;20120417
5,9326;6,2244;20120418
6,2244;6,3216;20120419
6,3216;6,3994;20120420
6,3994;5,9909;20120423
5,9909;6,3119;20120424
6,3119;5,8256;20120425
5,8256;5,4755;20120426
5,4755;5,8256;20120427
5,8256;5,9326;20120430
5,9326;5,9326;20120502
5,9326;6,0104;20120504
6,0104;5,8353;20120507
5,8353;5,7381;20120508
5,7381;5,6603;20120509
5,6603;5,6408;20120510
5,6408;5,5436;20120511
5,5436;5,5241;20120514
5,5241;5,4852;20120515
5,4852;5,1545;20120516
5,1545;4,785;20120517
4,785;5,1448;20120518
5,1448;5,8256;20120521
5,8256;5,8159;20120522
5,8159;5,6408;20120523
5,6408;5,4463;20120524
5,4463;5,3491;20120525
5,3491;5,3004;20120528
5,3004;5,1837;20120529
5,1837;4,96;20120530
4,96;4,8628;20120531
4,8628;4,8142;20120601
4,8142;4,5418;20120604
4,5418;4,3084;20120605
4,3084;4,182;20120606
4,182;4,4835;20120608
4,4835;4,6683;20120611
4,6683;4,785;20120612
4,785;5,2518;20120613
5,2518;5,7186;20120614
5,7186;6,0201;20120615
6,0201;6,0201;20120618
6,0201;6,0104;20120619
6,0104;5,5436;20120620
5,5436;5,2032;20120621
5,2032;4,9406;20120622
4,9406;4,678;20120625
4,678;4,8433;20120626
4,8433;4,7558;20120627
4,7558;4,5418;20120628
4,5418;4,1236;20120629
4,1236;3,6957;20120702
3,6957;3,4428;20120703
3,4428;3,3553;20120704
3,3553;3,5887;20120705
3,5887;3,7152;20120706
3,7152;3,8805;20120709
3,8805;3,8708;20120710
3,8708;3,6471;20120711
3,6471;3,5109;20120712
3,5109;3,5693;20120713
3,5693;3,5693;20120716
3,5693;3,5401;20120717
3,5401;3,7152;20120718
3,7152;3,5985;20120719
3,5985;3,5693;20120720
3,5693;3,5207;20120723
3,5207;3,5012;20120724
3,5012;3,5012;20120725
3,5012;3,4039;20120726
3,4039;3,472;20120727
3,472;3,4817;20120730
3,4817;3,4039;20120731
3,4039;3,2678;20120801
3,2678;3,2678;20120802
3,2678;3,19;20120803
3,19;3,1803;20120806
3,1803;3,3359;20120807
3,3359;3,4331;20120808
3,4331;3,4331;20120809
3,4331;3,4331;20120810
3,4331;3,4817;20120813
3,4817;3,3456;20120814
3,3456;3,365;20120816
3,365;3,3748;20120817
3,3748;3,3845;20120820
3,3845;3,3942;20120821
3,3942;3,4039;20120822
3,4039;3,4623;20120823
3,4623;3,5985;20120824
3,5985;3,5887;20120827
3,5887;3,4915;20120828
3,4915;3,5012;20120829
3,5012;3,4915;20120830
3,4915;3,4526;20120831
3,4526;3,4526;20120903
3,4526;3,4331;20120904
3,4331;3,3359;20120905
3,3359;3,3359;20120906
3,3359;3,3942;20120907
3,3942;3,5012;20120910
3,5012;3,4817;20120911
3,4817;3,5012;20120912
3,5012;3,5012;20120913
3,5012;3,5012;20120914
3,5012;3,4915;20120917
3,4915;3,4234;20120918
3,4234;3,4526;20120919
3,4526;3,2386;20120920
3,2386;3,3456;20120921
3,3456;3,4526;20120924
3,4526;3,4623;20120925
3,4623;3,4915;20120926
3,4915;3,686;20120927
3,686;3,5887;20120928
3,5887;3,5985;20121001
3,5985;3,5985;20121002
3,5985;3,5887;20121003
3,5887;3,5401;20121004
3,5401;3,5401;20121005
3,5401;3,579;20121008
3,579;3,5985;20121009
3,5985;3,5985;20121010
3,5985;3,5985;20121011
3,5985;3,5985;20121012
3,5985;3,5985;20121015
3,5985;3,5887;20121016
3,5887;3,5985;20121017
3,5985;3,5985;20121018
3,5985;3,5693;20121019
3,5693;3,5985;20121022
3,5985;3,5498;20121023
3,5498;3,4623;20121024
3,4623;3,472;20121025
3,472;3,4915;20121026
3,4915;3,365;20121029
3,365;3,4331;20121030
3,4331;3,5401;20121031
3,5401;3,4526;20121102
3,4526;3,4915;20121105
3,4915;3,5012;20121106
3,5012;3,5012;20121107
3,5012;3,5012;20121108
3,5012;3,4817;20121109
3,4817;3,4915;20121112
3,4915;3,4526;20121113
3,4526;3,4526;20121114
3,4526;3,3261;20121115
3,3261;3,2289;20121116
3,2289;3,2872;20121119
3,2872;3,3748;20121120
3,3748;3,3748;20121121
3,3748;3,3942;20121122
3,3942;3,3942;20121123
3,3942;3,3845;20121126
3,3845;3,3553;20121127
3,3553;3,2775;20121128
3,2775;3,083;20121129
3,083;3,3553;20121130
3,3553;3,5012;20121203
3,5012;3,4526;20121204
3,4526;3,4915;20121205
3,4915;3,472;20121206
3,472;3,4526;20121207
3,4526;3,472;20121210
3,472;3,4817;20121211
3,4817;3,4526;20121212
3,4526;3,7832;20121213
3,7832;3,8805;20121214
3,8805;3,7541;20121217
3,7541;3,6957;20121218
3,6957;3,7832;20121219
3,7832;3,7541;20121220
3,7541;3,6957;20121221
3,6957;3,7152;20121227
3,7152;3,793;20121228
3,793;3,7346;20130102
3,7346;3,6957;20130103
3,6957;3,6763;20130104
3,6763;3,6374;20130107
3,6374;3,5887;20130108
3,5887;3,6082;20130109
3,6082;3,5985;20130110
3,5985;3,6471;20130111
3,6471;3,6471;20130114
3,6471;3,579;20130115
3,579;3,6276;20130116
3,6276;3,6471;20130117
3,6471;3,6568;20130118
3,6568;4,2014;20130121
4,2014;4,0945;20130122
4,0945;4,075;20130123
4,075;4,2306;20130124
4,2306;4,2014;20130125
4,2014;4,396;20130128
4,396;4,4251;20130129
4,4251;4,396;20130130
4,396;4,2987;20130131
4,2987;4,1528;20130201
4,1528;4,1625;20130204
4,1625;4,2501;20130205
4,2501;4,2112;20130206
4,2112;4,1625;20130207
4,1625;4,1625;20130208
4,1625;4,2695;20130211
4,2695;4,3376;20130212
4,3376;4,2987;20130213
4,2987;4,2695;20130214
4,2695;4,3279;20130215
4,3279;4,5224;20130218
4,5224;4,7363;20130219
4,7363;4,5224;20130220
4,5224;4,6002;20130221
4,6002;4,6585;20130222
4,6585;4,7655;20130225
4,7655;4,9406;20130226
4,9406;4,8336;20130227
4,8336;4,8336;20130228
4,8336;4,8433;20130301
4,8433;4,6683;20130304
4,6683;4,571;20130305
4,571;4,6683;20130306
4,6683;4,6585;20130307
4,6585;4,6099;20130308
4,6099;4,6196;20130311
4,6196;4,5613;20130312
4,5613;4,4932;20130313
4,4932;4,4543;20130314
4,4543;4,4251;20130315
4,4251;4,6099;20130318
4,6099;4,5807;20130319
4,5807;4,5905;20130320
4,5905;4,5029;20130321
4,5029;4,357;20130322
4,357;4,2695;20130325
4,2695;3,9972;20130326
3,9972;4,0945;20130327
4,0945;4,1625;20130328
4,1625;4,0458;20130402
4,0458;4,0069;20130403
4,0069;3,8902;20130404
3,8902;3,8902;20130405
3,8902;3,8999;20130408
3,8999;3,9389;20130409
3,9389;3,686;20130410
3,686;3,6957;20130411
3,6957;3,5887;20130412
3,5887;3,6082;20130415
3,6082;3,5693;20130417
3,5693;3,3748;20130418
3,3748;3,4137;20130419
3,4137;3,3553;20130422
3,3553;3,3067;20130423
3,3067;3,365;20130424
3,365;3,2581;20130425
3,2581;3,3456;20130426
3,3456;3,4137;20130429
3,4137;3,4039;20130430
3,4039;3,3942;20130502
3,3942;3,3067;20130506
3,3067;3,3845;20130507
3,3845;3,4331;20130508
3,4331;3,472;20130509
3,472;3,5596;20130510
3,5596;3,6957;20130513
3,6957;3,8319;20130514
3,8319;4,2792;20130515
4,2792;4,3376;20130516
4,3376;4,357;20130517
4,357;4,2792;20130520
4,2792;4,2792;20130521
4,2792;4,2014;20130522
4,2014;4,1723;20130523
4,1723;4,1625;20130524
4,1625;4,2695;20130527
4,2695;4,182;20130528
4,182;4,1723;20130529
4,1723;4,2014;20130531
4,2014;4,2695;20130603
4,2695;4,2112;20130604
4,2112;4,1917;20130605
4,1917;4,1236;20130606
4,1236;4,0847;20130607
4,0847;4,3181;20130610
4,3181;4,2792;20130611
4,2792;4,1334;20130612
4,1334;4,2695;20130613
4,2695;4,3376;20130614
4,3376;4,357;20130617
4,357;4,4251;20130618
4,4251;4,6099;20130619
4,6099;4,5905;20130620
4,5905;4,4057;20130621
4,4057;4,2598;20130624
4,2598;4,2695;20130625
4,2695;4,2112;20130626
4,2112;4,0945;20130627
4,0945;4,0653;20130628
4,0653;3,9097;20130701
3,9097;4,0361;20130702
4,0361;4,1528;20130703
4,1528;4,0653;20130704
4,0653;4,0069;20130705
4,0069;4,0361;20130708
4,0361;3,9875;20130709
3,9875;4,0361;20130710
4,0361;3,9875;20130711
3,9875;3,968;20130712
3,968;3,9875;20130715
3,9875;4,0653;20130716
4,0653;4,0653;20130717
4,0653;4,0361;20130718
4,0361;3,8416;20130722
3,8416;3,8124;20130723
3,8124;3,8999;20130724
3,8999;4,0847;20130725
4,0847;4,0556;20130726
4,0556;4,0847;20130729
4,0847;4,0264;20130730
4,0264;3,968;20130731
3,968;3,9097;20130801
3,9097;3,9875;20130802
3,9875;3,9875;20130805
3,9875;4,0847;20130806
4,0847;4,2792;20130807
4,2792;4,5127;20130808
4,5127;4,4738;20130809
4,4738;4,3279;20130812
4,3279;4,2792;20130813
4,2792;4,571;20130814
4,571;4,4738;20130816
4,4738;4,6683;20130819
4,6683;4,7266;20130820
4,7266;4,6002;20130821
4,6002;4,6585;20130822
4,6585;4,6683;20130823
4,6683;4,7655;20130826
4,7655;4,7655;20130827
4,7655;4,7655;20130828
4,7655;4,6974;20130829
4,6974;4,7072;20130830
4,7072;4,5224;20130902
4,5224;4,7752;20130903
4,7752;4,8142;20130904
4,8142;4,7655;20130905
4,7655;4,7558;20130906
4,7558;4,7558;20130909
4,7558;5,0184;20130910
5,0184;5,2032;20130911
5,2032;5,1837;20130912
5,1837;5,8548;20130913
5,8548;6,2827;20130916
6,2827;6,5842;20130917
6,5842;6,4091;20130918
6,4091;6,5258;20130919
6,5258;6,5258;20130920
6,5258;6,2341;20130923
6,2341;6,1174;20130924
6,1174;6,1855;20130925
6,1855;6,1271;20130926
6,1271;6,059;20130927
6,059;6,0979;20130930
6,0979;6,0007;20131001
6,0007;5,9326;20131002
5,9326;6,0007;20131003
6,0007;6,166;20131004
6,166;6,0201;20131007
6,0201;5,9423;20131008
5,9423;5,9326;20131009
5,9326;6,2244;20131010
6,2244;6,2049;20131011
6,2049;6,2049;20131014
6,2049;6,1466;20131015
6,1466;6,1466;20131016
6,1466;6,0785;20131017
6,0785;6,1757;20131018
6,1757;6,2244;20131021
6,2244;6,3897;20131022
6,3897;6,4189;20131023
6,4189;6,5161;20131024
6,5161;6,5064;20131025
6,5064;6,7593;20131028
6,7593;6,8079;20131029
6,8079;6,8176;20131030
6,8176;6,7787;20131031
6,7787;6,8565;20131104
6,8565;6,8176;20131105
6,8176;6,8565;20131106
6,8565;6,9051;20131107
6,9051;6,6815;20131108
6,6815;6,7884;20131112
6,7884;6,8079;20131113
6,8079;6,8079;20131114
6,8079;7,1483;20131115
7,1483;7,1969;20131118
7,1969;7,6346;20131119
7,6346;7,5665;20131120
7,5665;7,479;20131121
7,479;7,5762;20131122
7,5762;7,5859;20131125
7,5859;7,3914;20131126
7,3914;7,1483;20131127
7,1483;7,0705;20131128
7,0705;7,0608;20131129
7,0608;7,0608;20131202
7,0608;7,051;20131203
7,051;6,9538;20131204
6,9538;6,9732;20131205
6,9732;6,8954;20131206
6,8954;6,9246;20131209
6,9246;6,9246;20131210
6,9246;7,0024;20131211
7,0024;6,9538;20131212
6,9538;7,0024;20131213
7,0024;6,8565;20131216
6,8565;6,6134;20131217
6,6134;6,7398;20131218
6,7398;6,7398;20131219
6,7398;6,7009;20131220
6,7009;6,7398;20131223
6,7398;6,7398;20131227
6,7398;6,7009;20131230
6,7009;6,7884;20140102
6,7884;6,8176;20140103
6,8176;6,6717;20140107
6,6717;6,7982;20140108
6,7982;6,7398;20140109
6,7398;7,0997;20140110
7,0997;7,0899;20140113
7,0899;7,0024;20140114
7,0024;6,9051;20140115
6,9051;6,9051;20140116
6,9051;6,9051;20140117
6,9051;6,9051;20140120
6,9051;7,0413;20140121
7,0413;7,1191;20140122
7,1191;7,372;20140123
7,372;7,4401;20140124
7,4401;7,4109;20140127
7,4109;7,6832;20140128
7,6832;7,9458;20140129
7,9458;8,4223;20140130
8,4223;8,4126;20140131
8,4126;8,539;20140203
8,539;8,4515;20140204
8,4515;8,2084;20140205
8,2084;7,9166;20140206
7,9166;7,8777;20140207
7,8777;7,7999;20140210
7,7999;7,7707;20140211
7,7707;8,0722;20140212
8,0722;8,1403;20140213
8,1403;8,0236;20140214
8,0236;7,9458;20140217
7,9458;7,8777;20140218
7,8777;7,8777;20140219
7,8777;7,8777;20140220
7,8777;7,9263;20140221
7,9263;7,8777;20140224
7,8777;7,7318;20140225
7,7318;7,4984;20140226
7,4984;7,3233;20140227
7,3233;7,4887;20140228
7,4887;6,9051;20140303
6,9051;7,051;20140304
7,051;7,2942;20140305
7,2942;7,0997;20140306
7,0997;7,0024;20140307
7,0024;6,7982;20140310
6,7982;6,9732;20140311
6,9732;6,8079;20140312
6,8079;6,8468;20140313
6,8468;6,5648;20140314
6,5648;6,7106;20140317
6,7106;6,7495;20140318
6,7495;7,2942;20140319
7,2942;7,4401;20140320
7,4401;7,4595;20140321
7,4595;7,1677;20140324
7,1677;7,2261;20140325
7,2261;7,1677;20140326
7,1677;7,0219;20140327
7,0219;6,8079;20140328
6,8079;7,1386;20140331
7,1386;6,8079;20140401
6,8079;6,7398;20140402
6,7398;6,8079;20140403
6,8079;6,8176;20140404
6,8176;6,6523;20140407
6,6523;6,662;20140408
6,662;6,6717;20140409
6,6717;6,662;20140410
6,662;6,6231;20140411
6,6231;6,4869;20140414
6,4869;6,2244;20140415
6,2244;6,1466;20140416
6,1466;6,0785;20140417
6,0785;6,3216;20140422
6,3216;6,2244;20140423
6,2244;6,0785;20140424
6,0785;6,1368;20140425
6,1368;6,1368;20140428
6,1368;6,1757;20140429
6,1757;6,1077;20140430
6,1077;6,0979;20140502
6,0979;5,9812;20140505
5,9812;5,9812;20140506
5,9812;5,8256;20140507
5,8256;5,7381;20140508
5,7381;5,4949;20140509
5,4949;5,4658;20140512
5,4658;5,4463;20140513
5,4463;5,4463;20140514
5,4463;5,6992;20140515
5,6992;5,6603;20140516
5,6603;5,5727;20140519
5,5727;5,6019;20140520
5,6019;5,6019;20140521
5,6019;5,6505;20140522
5,6505;5,5922;20140523
5,5922;5,5922;20140526
5,5922;5,6408;20140527
5,6408;5,6505;20140528
5,6505;5,6603;20140529
5,6603;5,67;20140530
5,67;5,6895;20140602
5,6895;5,6895;20140603
5,6895;5,7381;20140604
5,7381;5,7867;20140605
5,7867;5,8353;20140606
5,8353;5,7867;20140609
5,7867;5,7964;20140610
5,7964;5,7478;20140611
5,7478;5,7284;20140612
5,7284;5,67;20140613
5,67;5,6116;20140616
5,6116;5,6116;20140617
5,6116;5,6408;20140618
5,6408;5,6408;20140620
5,6408;5,7381;20140623
5,7381;5,7186;20140624
5,7186;5,67;20140625
5,67;5,97;20140626
5,97;5,9;20140627
5,9;5,84;20140630
5,84;5,65;20140701
5,65;5,65;20140703
5,65;5,55;20140704
5,55;5,48;20140707
5,48;5,45;20140708
5,45;5,34;20140710
5,34;5,37;20140711
5,37;5,4;20140714
5,4;5,35;20140715
5,35;5,39;20140716
5,39;5,39;20140717
5,39;5,43;20140718
5,43;5,39;20140721
5,39;5,37;20140722
5,37;5,25;20140723
5,25;5,22;20140724
5,22;5,11;20140725
5,11;5,15;20140728
5,15;5,28;20140729
5,28;5,23;20140730
5,23;5,19;20140731
5,19;5,14;20140801
5,14;5,13;20140804
5,13;4,97;20140805
4,97;4,88;20140806
4,88;4,7;20140807
4,7;4,62;20140808
4,62;4,67;20140811
4,67;4,72;20140812
4,72;4,74;20140813
4,74;4,68;20140814
4,68;4,65;20140818
4,65;4,67;20140819
4,67;4,71;20140820
4,71;4,97;20140821
4,97;4,95;20140822
4,95;5,14;20140825
5,14;5,25;20140826
5,25;5,52;20140827
5,52;5,25;20140828
5,25;5,19;20140829
5,19;5,07;20140901
5,07;5,06;20140902
5,06;5,13;20140903
5,13;5,16;20140904
5,16;5,08;20140905
5,08;5,19;20140908
5,19;5,33;20140909
5,33;5,47;20140910
5,47;5,11;20140911
5,11;5,13;20140912
5,13;5,27;20140915
5,27;5,3;20140916
5,3;5,3;20140917
5,3;5,31;20140918
5,31;5,4;20140919
5,4;5,4;20140922
5,4;5,22;20140923
5,22;5,05;20140924
5,05;5,23;20140925
5,23;5,18;20140929
5,18;5,25;20140930
5,25;5,13;20141001
5,13;5,08;20141002
5,08;5,2;20141003
5,2;5,11;20141006
5,11;5,12;20141007
5,12;5,12;20141008
5,12;4,97;20141009
4,97;4,75;20141010
4,75;4,79;20141013
4,79;4,75;20141014
4,75;4,69;20141015
4,69;4,55;20141016
4,55;4,7;20141017
4,7;4,66;20141020
4,66;4,7;20141021
4,7;4,76;20141022
4,76;4,68;20141023
4,68;4,8;20141024
4,8;4,86;20141027
4,86;4,99;20141028
4,99;4,95;20141029
4,95;4,99;20141030
4,99;4,91;20141031
4,91;4,89;20141103
4,89;4,87;20141104
4,87;4,9;20141105
4,9;4,85;20141106
4,85;4,8;20141107
4,8;4,75;20141110
4,75;4,85;20141112
4,85;4,79;20141113
4,79;4,79;20141114
4,79;4,67;20141117
4,67;4,67;20141118
4,67;4,59;20141119
4,59;4,4;20141120
4,4;4,28;20141121
4,28;4,17;20141124
4,17;4;20141125
4;4,12;20141126
4,12;4,15;20141127
4,15;4,15;20141128
4,15;4,19;20141201
4,19;4,21;20141202
4,21;4,48;20141203
4,48;4,6;20141204
4,6;4,51;20141205
4,51;4,39;20141208
4,39;4,32;20141209
4,32;4,24;20141210
4,24;4,2;20141211
4,2;4,2;20141212
4,2;4,24;20141215
4,24;4,05;20141216
4,05;4;20141217
4;4;20141218
4;4,02;20141219
4,02;3,96;20141222
3,96;3,9;20141223
3,9;3,94;20141229
3,94;4,02;20141230
