From;To;Date
23,5;59,5;20091013
59,5;81;20091014
81;100;20091015
100;92,5;20091016
92,5;79,5;20091019
79,5;67,5;20091020
67,5;58;20091021
58;70;20091022
70;62,5;20091023
62,5;60,5;20091026
60,5;60,5;20091027
60,5;55;20091028
55;61,5;20091029
61,5;56,5;20091030
56,5;58,5;20091102
58,5;52;20091103
52;47;20091104
47;51,5;20091105
51,5;48;20091106
48;47,5;20091109
47,5;52,5;20091110
52,5;61,5;20091112
61,5;56;20091113
56;56;20091116
56;49;20091117
49;54;20091118
54;52;20091119
52;50;20091123
50;45;20091124
45;46,5;20091125
46,5;42,5;20091126
42,5;45;20091127
45;43;20091130
43;42,5;20091201
42,5;38;20091202
38;42,5;20091203
42,5;38,5;20091204
38,5;39;20091207
39;39;20091208
39;35,5;20091209
35,5;34,5;20091210
34,5;37;20091211
37;39;20091214
39;37,5;20091215
37,5;37,5;20091217
37,5;37;20091218
37;32;20091221
32;36;20091222
36;32,5;20091228
32,5;39;20091229
39;40;20091230
40;43;20100105
43;36;20100106
36;43;20100107
43;43;20100108
43;45;20100111
45;42,5;20100113
42,5;42,5;20100114
42,5;40,5;20100115
40,5;39,5;20100118
39,5;41,5;20100119
41,5;43,5;20100121
43,5;54,5;20100122
54,5;48,5;20100125
48,5;50;20100126
50;47,5;20100127
47,5;48;20100128
48;43;20100129
43;45;20100201
45;43,5;20100202
43,5;40,5;20100203
40,5;40,5;20100204
40,5;39,5;20100205
39,5;40;20100208
40;39;20100209
39;41,5;20100210
41,5;40;20100211
40;41;20100212
41;39,5;20100215
39,5;41;20100216
41;48;20100217
48;46;20100219
46;44;20100222
44;45;20100223
45;44,5;20100224
44,5;46,5;20100225
46,5;46,5;20100226
46,5;49,5;20100301
49,5;47;20100302
47;43;20100303
43;43,5;20100304
43,5;42;20100305
42;40,5;20100308
40,5;40,5;20100309
40,5;40;20100310
40;42;20100311
42;42;20100312
42;45;20100315
45;48;20100316
48;47,5;20100317
47,5;46;20100318
46;47,5;20100319
47,5;44,5;20100322
44,5;42,5;20100323
42,5;42;20100324
42;42;20100325
42;41,5;20100326
41,5;40;20100329
40;42;20100330
42;41,5;20100331
41,5;40;20100401
40;40,5;20100406
40,5;41;20100407
41;41;20100408
41;41,5;20100409
41,5;42;20100412
42;38,5;20100413
38,5;41,5;20100414
41,5;42;20100415
42;42;20100420
42;41;20100421
41;43,5;20100422
43,5;43,5;20100423
43,5;40,5;20100426
40,5;41;20100427
41;41;20100428
41;43;20100429
43;43;20100430
43;42,5;20100505
42,5;42;20100506
42;42;20100507
42;42;20100512
42;42;20100517
42;39,5;20100518
39,5;32;20100519
32;36,5;20100520
36,5;39,5;20100521
39,5;41;20100524
41;40;20100525
40;37;20100526
37;34,5;20100527
34,5;34;20100528
34;34;20100601
34;32,5;20100604
32,5;32,5;20100607
32,5;32,5;20100608
32,5;33;20100609
33;30,5;20100610
30,5;32,5;20100611
32,5;33;20100615
33;33;20100617
33;33;20100622
33;32,5;20100623
32,5;32,5;20100624
32,5;32,5;20100629
32,5;31,5;20100630
31,5;32;20100701
32;32;20100706
32;32;20100709
32;30,5;20100713
30,5;29;20100714
29;29;20100715
29;31;20100716
31;30;20100720
30;29;20100723
29;29;20100727
29;29;20100729
29;29,5;20100802
29,5;28,5;20100803
28,5;26;20100804
26;29;20100805
29;26;20100806
26;26;20100809
26;26;20100811
26;29;20100812
29;29;20100813
29;27,5;20100817
27,5;25,5;20100818
25,5;25,5;20100823
25,5;25,5;20100825
25,5;29;20100830
29;25,5;20100902
25,5;26;20100903
26;28,5;20100906
28,5;25,5;20100907
25,5;29;20100908
29;29;20100909
29;31,5;20100913
31,5;29;20100915
29;31,5;20100916
31,5;31,5;20100917
31,5;32;20100921
32;34,5;20100923
34,5;33,5;20100924
33,5;33,5;20100927
33,5;34,5;20100929
34,5;33,5;20100930
33,5;31,5;20101001
31,5;31,5;20101006
31,5;31,5;20101011
31,5;31;20101015
31;30,5;20101018
30,5;26,5;20101019
26,5;26,5;20101020
26,5;24,5;20101021
24,5;25;20101022
25;26;20101026
26;26;20101027
26;27;20101028
27;27;20101029
27;26,5;20101102
26,5;27;20101103
27;26;20101104
26;27,5;20101105
27,5;27,5;20101108
27,5;27,5;20101109
27,5;27;20101110
27;28;20101112
28;30;20101115
30;30;20101116
30;29;20101117
29;32;20101118
32;32,5;20101119
32,5;36,5;20101122
36,5;33,5;20101123
33,5;30;20101125
30;32,5;20101126
32,5;30,5;20101129
30,5;29,5;20101130
29,5;29;20101201
29;31,5;20101202
31,5;31,5;20101203
31,5;30;20101206
30;30;20101207
30;29;20101208
29;29;20101210
29;29;20101213
29;30;20101214
30;31;20101215
31;33,5;20101216
33,5;37;20101217
37;33;20101220
33;37,5;20101221
37,5;34;20101222
34;32;20101223
32;30;20101228
30;31,5;20101229
31,5;45;20110103
45;43,5;20110104
43,5;39,5;20110105
39,5;41;20110107
41;38;20110110
38;35;20110111
35;34;20110112
34;34;20110113
34;34;20110114
34;38,5;20110117
38,5;37;20110118
37;34;20110119
34;33;20110120
33;33,5;20110121
33,5;35,5;20110124
35,5;33;20110125
33;33,5;20110126
33,5;34;20110127
34;33,5;20110128
33,5;33,5;20110131
33,5;32,5;20110201
32,5;30;20110202
30;29;20110203
29;29;20110204
29;31;20110207
31;29,5;20110208
29,5;30,5;20110209
30,5;30;20110211
30;30;20110214
30;28,5;20110215
28,5;28,5;20110216
28,5;27,5;20110217
27,5;27,5;20110218
27,5;28,5;20110221
28,5;29;20110222
29;27;20110223
27;26,5;20110224
26,5;28;20110225
28;30;20110228
30;30,5;20110301
30,5;29,5;20110302
29,5;30;20110303
30;30,5;20110304
30,5;30,5;20110307
30,5;31,5;20110308
31,5;32;20110309
32;29,5;20110311
29,5;30;20110314
30;30;20110315
30;29,5;20110316
29,5;30;20110317
30;31;20110318
31;30,5;20110321
30,5;30;20110322
30;30;20110323
30;30;20110324
30;30;20110325
30;30;20110328
30;30,5;20110330
30,5;30;20110331
30;30,5;20110401
30,5;31;20110404
31;31;20110405
31;31;20110406
31;30;20110407
30;31;20110408
31;29,5;20110412
29,5;30;20110413
30;29;20110414
29;28;20110415
28;28;20110418
28;28,5;20110419
28,5;28;20110420
28;28;20110421
28;32,5;20110426
32,5;30,5;20110427
30,5;30;20110428
30;29,5;20110429
29,5;29;20110502
29;27;20110504
27;27;20110505
27;28,5;20110506
28,5;28;20110510
28;29,5;20110511
29,5;28;20110512
28;28;20110513
28;27;20110516
27;30;20110517
30;30,5;20110518
30,5;29,5;20110519
29,5;29;20110520
29;28;20110523
28;28;20110525
28;27,5;20110526
27,5;28;20110527
28;28;20110530
28;28;20110531
28;27,5;20110601
27,5;26;20110602
26;29;20110603
29;26;20110606
26;27,5;20110607
27,5;28;20110608
28;27;20110609
27;26,5;20110613
26,5;27,5;20110614
27,5;28,5;20110616
28,5;28,5;20110617
28,5;28,5;20110620
28,5;27;20110622
27;28,5;20110624
28,5;27;20110627
27;27,5;20110628
27,5;28,5;20110629
28,5;28;20110630
28;27;20110701
27;27;20110705
27;28;20110706
28;27;20110707
27;26,5;20110708
26,5;27,5;20110711
27,5;28;20110712
28;28,5;20110713
28,5;26;20110718
26;27,5;20110719
27,5;27,5;20110720
27,5;26,5;20110721
26,5;26,5;20110725
26,5;26;20110727
26;26;20110728
26;26,5;20110729
26,5;25,5;20110801
25,5;25,5;20110802
25,5;25,5;20110803
25,5;23;20110804
23;21,5;20110805
21,5;20;20110808
20;20;20110809
20;20;20110810
20;20,5;20110811
20,5;21;20110812
21;19,5;20110816
19,5;23,5;20110817
23,5;22,5;20110818
22,5;23,5;20110819
23,5;23,5;20110822
23,5;22;20110824
22;22;20110825
22;21;20110826
21;20,5;20110829
20,5;22;20110830
22;25;20110901
25;23,5;20110902
23,5;25;20110905
25;22,5;20110906
22,5;21,5;20110907
21,5;21,5;20110908
21,5;21;20110909
21;21;20110912
21;21;20110913
21;21;20110914
21;23,5;20110915
23,5;25;20110916
25;26,5;20110919
26,5;26,5;20110920
26,5;26,5;20110922
26,5;25,5;20110923
25,5;25;20110926
25;25;20110927
25;25;20110928
25;25;20110929
25;25;20110930
25;25;20111003
25;25;20111004
25;25;20111007
25;24,5;20111010
24,5;23,5;20111011
23,5;23,5;20111012
23,5;25;20111014
25;24;20111024
24;22,5;20111025
22,5;22,5;20111026
22,5;23,5;20111027
23,5;24;20111028
24;24,5;20111031
24,5;23,5;20111102
23,5;23,5;20111107
23,5;23,5;20111108
23,5;23,5;20111109
23,5;22,5;20111110
22,5;23,5;20111114
23,5;23,5;20111115
23,5;23;20111116
23;22;20111117
22;22;20111118
22;21,5;20111121
21,5;20;20111122
20;19,5;20111123
19,5;19,5;20111128
19,5;20,5;20111129
20,5;20,5;20111130
20,5;20,5;20111201
20,5;20;20111202
20;21;20111205
21;23;20111206
23;23;20111207
23;23,5;20111208
23,5;23,5;20111209
23,5;23,5;20111212
23,5;24,5;20111213
24,5;27;20111214
27;26;20111215
26;27;20111216
27;25,5;20111219
25,5;24,5;20111220
24,5;23;20111222
23;23;20111223
23;27,5;20111227
27,5;28,5;20111228
28,5;30,5;20111229
30,5;31,5;20111230
31,5;28,5;20120102
28,5;25,5;20120105
25,5;25;20120109
25;24,5;20120110
24,5;24,5;20120111
24,5;27,5;20120112
27,5;24,5;20120113
24,5;24,5;20120116
24,5;26;20120117
26;25,5;20120118
25,5;25;20120119
25;24;20120120
24;23;20120124
23;23;20120125
23;23,5;20120126
23,5;23,5;20120130
23,5;23,5;20120131
23,5;23,5;20120201
23,5;23,5;20120202
23,5;24;20120203
24;23;20120206
23;22,5;20120207
22,5;22,5;20120208
22,5;24;20120210
24;24;20120213
24;25,5;20120214
25,5;25,5;20120215
25,5;24;20120216
24;25,5;20120217
25,5;25,5;20120220
25,5;25,5;20120221
25,5;25,5;20120222
25,5;25,5;20120223
25,5;25,5;20120224
25,5;25,5;20120227
25,5;25,5;20120229
25,5;25,5;20120301
25,5;26,5;20120302
26,5;28,5;20120305
28,5;27,5;20120306
27,5;27,5;20120307
27,5;27;20120308
27;26;20120309
26;25;20120312
25;26;20120313
26;28;20120314
28;28;20120316
28;28;20120319
28;28;20120320
28;28;20120321
28;28;20120322
28;28;20120323
28;27,5;20120327
27,5;27;20120328
27;26,5;20120329
26,5;28;20120330
28;28;20120402
28;27,5;20120405
27,5;27,5;20120410
27,5;26;20120411
26;26;20120412
26;27;20120413
27;30;20120416
30;31,5;20120417
31,5;31,5;20120418
31,5;29;20120419
29;31;20120420
31;32;20120423
32;32,5;20120424
32,5;32,5;20120425
32,5;30;20120426
30;31,5;20120427
31,5;30,5;20120430
30,5;31,5;20120502
31,5;30;20120504
30;31,5;20120507
31,5;31,5;20120508
31,5;31;20120509
31;30,5;20120510
30,5;30,5;20120511
30,5;30;20120514
30;29,5;20120515
29,5;30;20120516
30;28,5;20120517
28,5;28,5;20120521
28,5;29,5;20120522
29,5;29,5;20120523
29,5;30;20120524
30;28;20120525
28;27,5;20120529
27,5;27,5;20120530
27,5;27,5;20120531
27,5;27;20120601
27;27;20120604
27;25;20120605
25;23;20120606
23;25;20120608
25;26,5;20120611
26,5;24,5;20120612
24,5;24;20120618
24;24,5;20120619
24,5;25;20120622
25;25,5;20120625
25,5;28;20120626
28;27,5;20120627
27,5;26,5;20120628
26,5;25,5;20120704
25,5;25,5;20120705
25,5;25,5;20120709
25,5;25;20120710
25;25;20120711
25;22;20120712
22;20,5;20120713
20,5;22,5;20120716
22,5;22,5;20120718
22,5;22,5;20120719
22,5;22,5;20120720
22,5;20;20120723
20;21,5;20120724
21,5;19,5;20120725
19,5;21;20120726
21;21,5;20120803
21,5;20;20120814
20;22,5;20120817
22,5;22,5;20120820
22,5;21,5;20120822
21,5;22,5;20120824
22,5;20,5;20120827
20,5;21,5;20120829
21,5;22,5;20120830
22,5;23;20120831
23;22,5;20120903
22,5;21,5;20120905
21,5;21,5;20120906
21,5;22,5;20120907
22,5;22,5;20120911
22,5;23;20120912
23;24;20120913
24;25,5;20120914
25,5;25,5;20120917
25,5;25,5;20120919
25,5;25;20121001
25;23,5;20121004
23,5;25;20121012
25;25,5;20121015
25,5;23,5;20121023
23,5;24,5;20121024
24,5;24,5;20121026
24,5;23,5;20121031
23,5;22;20121102
22;22;20121107
22;22;20121112
22;24;20121113
24;23;20121119
23;20;20121122
20;19,5;20121127
19,5;20,5;20121130
20,5;20;20121203
20;20,5;20121204
20,5;20;20121205
20;20,5;20121206
20,5;23,5;20121207
23,5;24;20121210
24;24,5;20121211
24,5;22,5;20121212
22,5;20,5;20121213
20,5;22,5;20121214
22,5;22,5;20121217
22,5;22,5;20121218
22,5;20;20121219
20;18;20121220
18;18;20121221
18;20;20121227
20;20;20121228
20;20;20130102
20;20;20130103
20;20;20130104
20;20;20130107
20;20;20130108
20;20;20130109
20;20;20130110
20;19;20130111
19;18,5;20130114
18,5;20;20130115
20;17;20130116
17;19,5;20130117
19,5;20;20130118
20;19,5;20130121
19,5;19;20130122
19;19,5;20130123
19,5;21;20130124
21;20;20130125
20;21,5;20130128
21,5;21,5;20130129
21,5;21,5;20130130
21,5;21,5;20130131
21,5;20,5;20130201
20,5;20,5;20130204
20,5;21;20130205
21;19;20130206
19;20;20130207
20;20;20130208
20;20;20130211
20;20;20130212
20;20;20130213
20;21;20130214
21;21,5;20130215
21,5;23,5;20130218
23,5;25;20130219
25;25,5;20130220
25,5;25,5;20130221
25,5;24,5;20130222
24,5;24,5;20130225
24,5;24,5;20130226
24,5;24,5;20130227
24,5;24,5;20130228
24,5;23,5;20130301
23,5;18,5;20130304
18,5;20;20130305
20;20;20130306
20;20;20130307
20;20;20130308
20;20;20130311
20;18;20130312
18;18;20130313
18;19;20130314
19;20,5;20130315
20,5;20;20130318
20;20,5;20130319
20,5;20;20130320
20;20;20130321
20;20;20130322
20;19;20130325
19;20;20130326
20;20;20130327
20;20;20130328
20;17;20130402
17;17;20130403
17;19,5;20130404
19,5;19,5;20130405
19,5;20;20130408
20;20;20130409
20;19,5;20130410
19,5;20;20130411
20;20;20130412
20;22,5;20130415
22,5;22;20130417
22;20;20130418
20;20;20130419
20;20;20130422
20;20;20130423
20;20;20130424
20;19,5;20130425
19,5;19,5;20130426
19,5;19,5;20130429
19,5;19,5;20130430
19,5;20;20130502
20;20;20130506
20;20;20130507
20;19,5;20130508
19,5;20;20130509
20;20;20130510
20;20;20130513
20;19,5;20130514
19,5;20;20130515
20;20;20130516
20;20;20130517
20;16,5;20130520
16,5;19,5;20130521
19,5;18,5;20130522
18,5;18,5;20130523
18,5;18,5;20130524
18,5;17;20130527
17;19;20130528
19;19;20130529
19;20;20130531
20;20;20130603
20;20;20130604
20;20;20130605
20;20;20130606
20;19,5;20130607
19,5;19,5;20130610
19,5;19,5;20130611
19,5;19,5;20130612
19,5;19,5;20130613
19,5;19,5;20130614
19,5;19,5;20130617
19,5;19,5;20130618
19,5;19,5;20130619
19,5;19,5;20130620
19,5;19,5;20130621
19,5;19,5;20130624
19,5;13,5;20130625
13,5;12,5;20130626
12,5;12;20130627
12;12,5;20130628
12,5;12,5;20130701
12,5;11;20130702
11;10;20130703
10;11;20130704
11;10,5;20130705
10,5;10;20130708
10;11,5;20130709
11,5;11;20130710
11;11,5;20130711
11,5;10,5;20130712
10,5;9,5;20130715
9,5;9;20130716
9;9;20130717
9;9;20130718
9;9,5;20130719
9,5;9;20130722
9;9,5;20130723
9,5;9,5;20130724
9,5;9,5;20130725
9,5;9,5;20130726
9,5;9,5;20130729
9,5;9,5;20130730
9,5;9,5;20130731
9,5;9,5;20130801
9,5;9,5;20130802
9,5;9,5;20130805
9,5;9,5;20130806
9,5;10;20130807
10;10,5;20130808
10,5;13;20130809
13;12,5;20130812
12,5;13,5;20130813
13,5;13;20130814
13;13,5;20130816
13,5;11,5;20130819
11,5;11;20130820
11;12;20130821
12;12,5;20130822
12,5;12,5;20130823
12,5;12;20130826
12;11,5;20130827
11,5;11;20130828
11;11,5;20130829
11,5;11,5;20130830
11,5;11,5;20130902
11,5;10,5;20130903
10,5;11;20130904
11;10;20130905
10;11;20130906
11;10,5;20130909
10,5;11;20130910
11;10,5;20130911
10,5;11;20130912
11;11;20130913
11;10;20130916
10;11;20130917
11;10,5;20130918
10,5;10,5;20130919
10,5;10;20130920
10;10,5;20130923
10,5;10,5;20130924
10,5;10;20130925
10;10,5;20130926
10,5;10,5;20130927
10,5;10;20130930
10;9,5;20131001
9,5;10;20131002
10;10,5;20131003
10,5;10,5;20131004
10,5;10;20131007
10;10;20131008
10;10,5;20131009
10,5;10;20131010
10;13,5;20131011
13,5;16,5;20131014
16,5;15;20131015
15;15;20131016
15;14;20131017
14;13,5;20131018
13,5;14;20131021
14;14;20131022
14;13,5;20131023
13,5;13,5;20131024
13,5;12,5;20131025
12,5;11;20131028
11;11,5;20131029
11,5;12,5;20131030
12,5;12,5;20131031
12,5;12,5;20131104
12,5;13;20131105
13;12,5;20131106
12,5;12,5;20131107
12,5;12;20131108
12;12;20131112
12;11,5;20131113
11,5;12;20131114
12;12;20131115
12;12;20131118
12;12;20131119
12;11,5;20131120
11,5;11,5;20131121
11,5;11,5;20131122
11,5;11,5;20131125
11,5;11,5;20131126
11,5;11,5;20131127
11,5;12;20131128
12;12;20131129
12;11,5;20131202
11,5;11,5;20131203
11,5;11,5;20131204
11,5;11,5;20131205
11,5;11;20131206
11;11;20131209
11;11,5;20131210
11,5;11;20131211
11;11,5;20131212
11,5;11,5;20131213
11,5;11,5;20131216
11,5;11;20131217
11;11,5;20131218
11,5;10,5;20131219
10,5;10;20131220
10;10;20131223
10;11;20131227
11;11,5;20131230
11,5;12,5;20140102
12,5;12,5;20140103
12,5;12,5;20140107
12,5;13;20140108
13;13,5;20140109
13,5;13,5;20140110
13,5;13,5;20140113
13,5;13,5;20140114
13,5;13,5;20140115
13,5;13;20140116
13;12;20140117
12;12;20140120
12;11,5;20140121
11,5;12;20140122
12;12;20140123
12;12;20140124
12;11,5;20140127
11,5;12;20140128
12;12;20140129
12;12,5;20140130
12,5;11,5;20140131
11,5;11,5;20140203
11,5;11,5;20140204
11,5;11,5;20140205
11,5;11,5;20140206
11,5;11,5;20140207
11,5;11;20140210
11;12;20140211
12;11;20140212
11;12;20140213
12;11,5;20140214
11,5;10,5;20140217
10,5;11;20140218
11;11;20140219
11;11;20140220
11;11;20140221
11;11,5;20140224
11,5;11;20140225
11;11;20140226
11;10,5;20140227
10,5;10,5;20140228
10,5;10;20140303
10;10,5;20140304
10,5;10;20140305
10;10;20140306
10;10;20140307
10;10;20140310
10;10;20140311
10;9,5;20140312
9,5;9,5;20140313
9,5;9,5;20140314
9,5;9,5;20140317
9,5;9;20140318
9;9;20140319
9;9,5;20140320
9,5;9,5;20140321
9,5;9,5;20140324
9,5;9;20140325
9;9;20140326
9;9;20140327
9;9;20140328
9;8,5;20140331
8,5;8,5;20140401
8,5;7;20140402
7;7,73;20140417
7,73;7,73;20140422
7,73;6,94;20140423
6,94;7;20140424
7;6,97;20140425
6,97;6,76;20140428
6,76;7;20140429
7;7;20140430
7;7;20140502
7;6,5;20140505
6,5;6,3;20140506
6,3;6,3;20140507
6,3;6,3;20140508
6,3;6,1;20140509
6,1;5,49;20140512
5,49;5,25;20140513
5,25;4,95;20140514
4,95;4,79;20140515
4,79;4,47;20140516
4,47;3,9;20140519
3,9;3,8;20140520
3,8;4,2;20140521
4,2;4,2;20140522
4,2;4,01;20140523
4,01;4,17;20140526
4,17;3,95;20140527
3,95;3,95;20140528
3,95;4,1;20140529
4,1;3,95;20140530
3,95;3,87;20140602
3,87;3,75;20140603
3,75;3,97;20140604
3,97;3,99;20140605
3,99;3,8;20140606
3,8;3,8;20140609
3,8;3,61;20140610
3,61;3,61;20140611
3,61;3,59;20140612
3,59;3,52;20140613
3,52;3,53;20140616
3,53;3,52;20140617
3,52;3,6;20140618
3,6;3,6;20140620
3,6;3,7;20140623
3,7;3,69;20140624
3,69;3,68;20140625
3,68;3,67;20140626
3,67;3,79;20140627
3,79;3,8;20140630
3,8;3,8;20140701
3,8;3,97;20140702
3,97;3,9;20140703
3,9;3,97;20140704
3,97;3,87;20140707
3,87;3,8;20140708
3,8;3,97;20140709
3,97;3,97;20140710
3,97;3,97;20140711
3,97;3,39;20140715
3,39;3,71;20140716
3,71;3,6;20140717
3,6;3,7;20140718
3,7;3,65;20140721
3,65;3,7;20140722
3,7;3,64;20140723
3,64;3,64;20140724
3,64;3,7;20140725
3,7;3,65;20140728
3,65;3,5;20140729
3,5;3,55;20140730
3,55;3,67;20140731
3,67;3,32;20140801
3,32;3,32;20140804
3,32;3,3;20140805
3,3;3,29;20140806
3,29;3,45;20140807
3,45;3,5;20140808
3,5;3,16;20140811
3,16;3,2;20140813
3,2;3,42;20140814
3,42;3,3;20140818
3,3;3,47;20140819
3,47;3,19;20140820
3,19;2,68;20140821
2,68;2,69;20140822
2,69;2,85;20140825
2,85;2,6;20140826
2,6;2,49;20140827
2,49;2,5;20140828
2,5;2,5;20140829
2,5;2,4;20140901
2,4;2,23;20140902
2,23;2,05;20140903
2,05;2,24;20140904
2,24;2,19;20140905
2,19;2,55;20140908
2,55;3,18;20140909
3,18;2,82;20140910
2,82;2,83;20140911
2,83;2,94;20140912
2,94;2,89;20140915
2,89;2,85;20140916
2,85;2,85;20140917
2,85;2,74;20140918
2,74;2,61;20140919
2,61;2,61;20140922
2,61;2,69;20140923
2,69;2,56;20140924
2,56;2,55;20140925
2,55;2,6;20140926
2,6;2,25;20140929
2,25;2,34;20140930
2,34;2,17;20141001
2,17;2,19;20141002
2,19;2,07;20141003
2,07;2,2;20141006
2,2;2,15;20141007
2,15;2,02;20141008
2,02;2,15;20141009
2,15;2,15;20141010
2,15;2,14;20141013
2,14;2,09;20141014
2,09;2,08;20141015
2,08;2,02;20141016
2,02;2,01;20141017
2,01;2,07;20141020
2,07;2,08;20141021
2,08;2,06;20141022
2,06;2,06;20141023
2,06;2;20141024
2;2;20141027
2;2;20141028
2;1,95;20141029
1,95;2;20141030
2;2;20141031
2;2;20141103
2;2,06;20141104
2,06;2,06;20141105
2,06;2,08;20141106
2,08;2,2;20141107
2,2;2,2;20141110
2,2;2,2;20141112
2,2;2,2;20141113
2,2;2,2;20141114
2,2;2,26;20141117
2,26;1,99;20141118
1,99;2;20141119
2;2;20141120
2;2,15;20141121
2,15;2,12;20141124
2,12;1,9;20141125
1,9;2,08;20141126
2,08;1,99;20141127
1,99;2,03;20141128
2,03;2,04;20141201
2,04;2,02;20141202
2,02;2,04;20141203
2,04;2,03;20141204
2,03;2,02;20141205
2,02;2;20141208
2;2;20141209
2;1,99;20141210
1,99;1,98;20141211
1,98;1,97;20141212
1,97;1,83;20141215
1,83;1,79;20141216
1,79;1,79;20141217
1,79;1,77;20141218
1,77;1,46;20141219
1,46;1,23;20141222
1,23;1,2;20141223
1,2;1,35;20141229
1,35;1,3;20141230
