From;To;Date
4;4;20081218
4;4;20081219
4;4;20081222
4;2;20081223
2;3;20081229
3;3;20081230
3;3;20081231
3;3;20090105
3;4;20090106
4;4;20090107
4;3;20090108
3;3;20090112
3;3;20090113
3;4;20090114
4;2;20090115
2;3;20090116
3;0;20090119
0;2;20090120
2;2;20090121
2;2;20090122
2;2;20090123
2;3;20090126
3;3;20090127
3;1;20090128
1;3;20090129
3;3;20090130
3;3;20090202
3;3;20090203
3;3;20090204
3;4;20090205
4;3;20090206
3;3;20090209
3;4;20090210
4;3;20090211
3;2;20090212
2;2;20090213
2;3;20090216
3;3;20090217
3;3;20090218
3;2;20090219
2;1;20090220
1;3;20090223
3;4;20090224
4;3;20090225
3;3;20090226
3;3;20090227
3;2;20090302
2;4;20090303
4;2;20090304
2;3;20090305
3;4;20090306
4;0;20090309
0;2;20090310
2;0;20090311
0;2;20090312
2;3;20090313
3;3;20090316
3;2;20090317
2;3;20090318
3;2;20090319
2;1;20090320
1;3;20090323
3;2;20090324
2;2;20090325
2;0;20090326
0;1;20090327
1;0;20090330
0;0;20090331
0;0;20090401
0;2;20090402
2;3;20090403
3;3;20090406
3;3;20090407
3;3;20090408
3;3;20090409
3;3;20090414
3;3;20090415
3;3;20090416
3;2;20090417
2;3;20090420
3;2;20090421
2;3;20090422
3;3;20090423
3;3;20090424
3;3;20090427
3;4;20090428
4;4;20090429
4;4;20090430
4;3;20090504
3;3;20090505
3;3;20090506
3;3;20090507
3;3;20090508
3;4;20090511
4;3;20090512
3;3;20090513
3;2;20090514
2;3;20090515
3;3;20090518
3;3;20090519
3;3;20090520
3;4;20090521
4;3;20090522
3;3;20090525
3;4;20090526
4;3;20090527
3;4;20090528
4;3;20090529
3;3;20090601
3;3;20090602
3;3;20090603
3;3;20090604
3;3;20090605
3;3;20090608
3;3;20090609
3;3;20090610
3;2;20090612
2;3;20090615
3;3;20090616
3;2;20090617
2;3;20090618
3;3;20090619
3;3;20090622
3;3;20090623
3;3;20090624
3;3;20090625
3;3;20090626
3;3;20090629
3;4;20090630
4;3;20090701
3;2;20090702
2;2;20090703
2;3;20090706
3;3;20090707
3;3;20090708
3;2;20090709
2;2;20090710
2;2;20090713
2;3;20090714
3;2;20090715
2;3;20090716
3;3;20090717
3;2;20090720
2;4;20090721
4;3;20090722
3;3;20090723
3;3;20090724
3;3;20090727
3;2;20090728
2;3;20090729
3;2;20090730
2;3;20090731
3;2;20090803
2;3;20090804
3;3;20090805
3;3;20090806
3;3;20090807
3;3;20090810
3;3;20090811
3;3;20090812
3;3;20090813
3;2;20090814
2;3;20090817
3;3;20090818
3;3;20090819
3;3;20090820
3;2;20090821
2;3;20090824
3;3;20090825
3;3;20090826
3;4;20090827
4;3;20090828
3;3;20090831
3;3;20090901
3;3;20090902
3;2;20090903
2;3;20090904
3;3;20090907
3;3;20090908
3;2;20090909
2;3;20090910
3;2;20090911
2;3;20090914
3;2;20090915
2;3;20090916
3;3;20090917
3;3;20090918
3;2;20090921
2;2;20090922
2;2;20090923
2;4;20090924
4;4;20090925
4;3;20090928
3;3;20090929
3;3;20090930
3;3;20091001
3;2;20091002
2;2;20091005
2;3;20091006
3;2;20091007
2;2;20091008
2;3;20091009
3;2;20091012
2;2;20091013
2;3;20091014
3;1;20091015
1;3;20091016
3;3;20091019
3;3;20091020
3;3;20091021
3;2;20091022
2;3;20091023
3;2;20091026
2;3;20091027
3;2;20091028
2;4;20091029
4;2;20091030
2;3;20091102
3;1;20091103
1;2;20091104
2;3;20091105
3;2;20091106
2;2;20091109
2;3;20091110
3;3;20091112
3;4;20091113
4;3;20091116
3;1;20091117
1;2;20091118
2;3;20091119
3;2;20091120
2;1;20091123
1;2;20091124
2;2;20091125
2;2;20091126
2;2;20091127
2;2;20091130
2;2;20091201
2;3;20091202
3;3;20091203
3;1;20091204
1;2;20091207
2;3;20091208
3;3;20091209
3;3;20091210
3;3;20091211
3;3;20091214
3;3;20091215
3;3;20091216
3;3;20091217
3;4;20091218
4;5;20091221
5;4;20091222
4;3;20091223
3;3;20091228
3;3;20091229
3;3;20091230
3;4;20091231
4;4;20100104
4;4;20100105
4;3;20100106
3;3;20100107
3;3;20100108
3;4;20100111
4;3;20100112
3;2;20100113
2;2;20100114
2;3;20100115
3;2;20100118
2;3;20100119
3;3;20100120
3;3;20100121
3;2;20100122
2;3;20100125
3;3;20100126
3;3;20100127
3;3;20100128
3;2;20100129
2;3;20100201
3;4;20100202
4;3;20100203
3;3;20100204
3;3;20100205
3;4;20100208
4;2;20100209
2;3;20100210
3;3;20100211
3;2;20100212
2;3;20100215
3;2;20100216
2;3;20100217
3;4;20100218
4;3;20100219
3;2;20100222
2;3;20100223
3;3;20100224
3;3;20100225
3;5;20100226
5;4;20100301
4;4;20100302
4;3;20100303
3;3;20100304
3;2;20100305
2;4;20100308
4;4;20100309
4;4;20100310
4;4;20100311
4;3;20100312
3;2;20100315
2;2;20100316
2;4;20100317
4;3;20100318
3;3;20100319
3;2;20100322
2;2;20100323
2;3;20100324
3;3;20100325
3;3;20100326
3;4;20100329
4;2;20100330
2;3;20100331
3;4;20100401
4;3;20100406
3;3;20100407
3;3;20100408
3;3;20100409
3;3;20100412
3;2;20100413
2;3;20100414
3;3;20100415
3;3;20100416
3;3;20100419
3;3;20100420
3;3;20100421
3;3;20100422
3;2;20100423
2;2;20100426
2;2;20100427
2;3;20100428
3;3;20100429
3;2;20100430
2;3;20100504
3;2;20100505
2;3;20100506
3;3;20100507
3;3;20100510
3;4;20100511
4;3;20100512
3;4;20100513
4;3;20100514
3;3;20100517
3;3;20100518
3;4;20100519
4;3;20100520
3;3;20100521
3;3;20100524
3;3;20100525
3;3;20100526
3;3;20100527
3;3;20100528
3;2;20100531
2;3;20100601
3;3;20100602
3;1;20100604
1;3;20100607
3;2;20100608
2;2;20100609
2;3;20100610
3;2;20100611
2;3;20100614
3;2;20100615
2;3;20100616
3;2;20100617
2;2;20100618
2;3;20100621
3;3;20100622
3;2;20100623
2;3;20100624
3;5;20100625
5;2;20100628
2;3;20100629
3;3;20100630
3;1;20100701
1;3;20100702
3;2;20100705
2;4;20100706
4;4;20100707
4;2;20100708
2;3;20100709
3;3;20100712
3;4;20100713
4;3;20100714
3;3;20100715
3;2;20100716
2;3;20100719
3;2;20100720
2;3;20100721
3;2;20100722
2;2;20100723
2;3;20100726
3;3;20100727
3;3;20100728
3;3;20100729
3;2;20100730
2;3;20100802
3;3;20100803
3;2;20100804
2;2;20100805
2;3;20100806
3;3;20100809
3;2;20100810
2;2;20100811
2;2;20100812
2;3;20100813
3;3;20100816
3;2;20100817
2;2;20100818
2;1;20100819
1;2;20100820
2;2;20100823
2;3;20100824
3;2;20100825
2;3;20100826
3;2;20100827
2;2;20100830
2;3;20100831
3;2;20100901
2;2;20100902
2;2;20100903
2;2;20100906
2;3;20100907
3;2;20100908
2;2;20100909
2;3;20100910
3;3;20100913
3;3;20100914
3;3;20100915
3;2;20100916
2;1;20100917
1;3;20100920
3;3;20100921
3;3;20100922
3;3;20100923
3;2;20100924
2;2;20100927
2;3;20100928
3;3;20100929
3;3;20100930
3;3;20101001
3;3;20101004
3;2;20101005
2;3;20101006
3;0;20101007
0;2;20101008
2;2;20101011
2;3;20101012
3;2;20101013
2;3;20101014
3;0;20101015
0;3;20101018
3;3;20101019
3;4;20101020
4;3;20101021
3;2;20101022
2;3;20101025
3;3;20101026
3;3;20101027
3;2;20101028
2;3;20101029
3;3;20101102
3;3;20101103
3;3;20101104
3;3;20101105
3;3;20101108
3;4;20101109
4;4;20101110
4;3;20101112
3;3;20101115
3;4;20101116
4;3;20101117
3;3;20101118
3;3;20101119
3;2;20101122
2;3;20101123
3;4;20101124
4;3;20101125
3;3;20101126
3;2;20101129
2;3;20101130
3;5;20101201
5;3;20101202
3;2;20101203
2;3;20101206
3;3;20101207
3;2;20101208
2;2;20101209
2;3;20101210
3;2;20101213
2;3;20101214
3;3;20101215
3;3;20101216
3;3;20101217
3;2;20101220
2;3;20101221
3;3;20101222
3;2;20101223
2;2;20101227
2;3;20101228
3;3;20101229
3;4;20101230
4;4;20101231
4;3;20110103
3;2;20110104
2;3;20110105
3;3;20110107
3;3;20110110
3;2;20110111
2;3;20110112
3;3;20110113
3;3;20110114
3;3;20110117
3;3;20110118
3;3;20110119
3;2;20110120
2;3;20110121
3;2;20110124
2;3;20110125
3;3;20110126
3;3;20110127
3;3;20110128
3;3;20110131
3;3;20110201
3;3;20110202
3;3;20110203
3;3;20110204
3;3;20110207
3;2;20110208
2;3;20110209
3;3;20110210
3;3;20110211
3;3;20110214
3;2;20110215
2;2;20110216
2;3;20110217
3;3;20110218
3;3;20110221
3;3;20110222
3;4;20110223
4;2;20110224
2;2;20110225
2;3;20110228
3;2;20110301
2;4;20110302
4;4;20110303
4;4;20110304
4;4;20110307
4;4;20110308
4;4;20110309
4;3;20110310
3;3;20110311
3;3;20110314
3;3;20110315
3;2;20110316
2;3;20110317
3;2;20110318
2;1;20110321
1;3;20110322
3;2;20110323
2;3;20110324
3;3;20110325
3;3;20110328
3;3;20110329
3;3;20110330
3;3;20110331
3;2;20110401
2;2;20110404
2;3;20110405
3;3;20110406
3;2;20110407
2;2;20110408
2;3;20110411
3;4;20110412
4;3;20110413
3;3;20110414
3;5;20110415
5;3;20110418
3;2;20110419
2;2;20110420
2;3;20110421
3;3;20110426
3;2;20110427
2;2;20110428
2;2;20110429
2;2;20110502
2;3;20110504
3;2;20110505
2;3;20110506
3;3;20110509
3;4;20110510
4;2;20110511
2;2;20110512
2;3;20110513
3;4;20110516
4;3;20110517
3;4;20110518
4;3;20110519
3;3;20110520
3;3;20110523
3;1;20110524
1;3;20110525
3;3;20110526
3;2;20110527
2;3;20110530
3;2;20110531
2;3;20110601
3;2;20110602
2;2;20110603
2;2;20110606
2;2;20110607
2;4;20110608
4;2;20110609
2;3;20110610
3;3;20110613
3;3;20110614
3;3;20110615
3;3;20110616
3;3;20110617
3;2;20110620
2;3;20110621
3;3;20110622
3;3;20110624
3;3;20110627
3;3;20110628
3;3;20110629
3;3;20110630
3;3;20110701
3;3;20110704
3;3;20110705
3;3;20110706
3;3;20110707
3;2;20110708
2;3;20110711
3;3;20110712
3;3;20110713
3;4;20110714
4;3;20110715
3;3;20110718
3;3;20110719
3;4;20110720
4;3;20110721
3;3;20110722
3;2;20110725
2;2;20110726
2;3;20110727
3;3;20110728
3;3;20110729
3;4;20110801
4;3;20110802
3;3;20110803
3;3;20110804
3;3;20110805
3;3;20110808
3;3;20110809
3;3;20110810
3;3;20110811
3;4;20110812
4;3;20110816
3;3;20110817
3;3;20110818
3;3;20110819
3;4;20110822
4;4;20110823
4;2;20110824
2;2;20110825
2;4;20110826
4;2;20110829
2;4;20110830
4;2;20110831
2;3;20110901
3;2;20110902
2;3;20110905
3;3;20110906
3;3;20110907
3;3;20110908
3;2;20110909
2;3;20110912
3;2;20110913
2;1;20110914
1;4;20110915
4;3;20110916
3;3;20110919
3;3;20110920
3;3;20110921
3;3;20110922
3;3;20110923
3;4;20110926
4;3;20110927
3;3;20110928
3;3;20110929
3;2;20110930
2;4;20111003
4;3;20111004
3;4;20111005
4;4;20111006
4;3;20111007
3;3;20111010
3;4;20111011
4;5;20111012
5;4;20111013
4;4;20111014
4;4;20111017
4;4;20111018
4;4;20111019
4;5;20111020
5;4;20111021
4;3;20111024
3;3;20111025
3;3;20111026
3;5;20111027
5;4;20111028
4;3;20111031
3;4;20111102
4;4;20111103
4;3;20111104
3;3;20111107
3;3;20111108
3;4;20111109
4;3;20111110
3;3;20111114
3;4;20111115
4;3;20111116
3;3;20111117
3;3;20111118
3;3;20111121
3;3;20111122
3;4;20111123
4;2;20111124
2;2;20111125
2;4;20111128
4;5;20111129
5;3;20111130
3;4;20111201
4;3;20111202
3;5;20111205
5;3;20111206
3;4;20111207
4;3;20111208
3;3;20111209
3;5;20111212
5;4;20111213
4;3;20111214
3;4;20111215
4;3;20111216
3;3;20111219
3;4;20111220
4;4;20111221
4;3;20111222
3;2;20111223
2;3;20111227
3;3;20111228
3;3;20111229
3;3;20111230
3;3;20120102
3;3;20120103
3;3;20120104
3;3;20120105
3;3;20120109
3;2;20120110
2;4;20120111
4;4;20120112
4;3;20120113
3;3;20120116
3;4;20120117
4;4;20120118
4;4;20120119
4;3;20120120
3;3;20120123
3;4;20120124
4;3;20120125
3;4;20120126
4;4;20120127
4;3;20120130
3;4;20120131
4;4;20120201
4;5;20120202
5;4;20120203
4;3;20120206
3;3;20120207
3;3;20120208
3;3;20120209
3;3;20120210
3;4;20120213
4;4;20120214
4;4;20120215
4;4;20120216
4;5;20120217
5;3;20120220
3;4;20120221
4;4;20120222
4;4;20120223
4;4;20120224
4;3;20120227
3;2;20120228
2;4;20120229
4;5;20120301
5;4;20120302
4;4;20120305
4;4;20120306
4;3;20120307
3;3;20120308
3;3;20120309
3;3;20120312
3;3;20120313
3;3;20120314
3;3;20120315
3;3;20120316
3;4;20120319
4;3;20120320
3;4;20120321
4;3;20120322
3;4;20120323
4;3;20120326
3;4;20120327
4;3;20120328
3;3;20120329
3;3;20120330
3;3;20120402
3;2;20120403
2;3;20120404
3;4;20120405
4;3;20120410
3;3;20120411
3;2;20120412
2;4;20120413
4;2;20120416
2;3;20120417
3;3;20120418
3;4;20120419
4;2;20120420
2;3;20120423
3;3;20120424
3;4;20120425
4;3;20120426
3;5;20120427
5;2;20120430
2;4;20120502
4;4;20120504
4;2;20120507
2;4;20120508
4;2;20120509
2;2;20120510
2;4;20120511
4;3;20120514
3;2;20120515
2;3;20120516
3;3;20120517
3;4;20120518
4;4;20120521
4;3;20120522
3;3;20120523
3;3;20120524
3;3;20120525
3;2;20120528
2;3;20120529
3;3;20120530
3;4;20120531
4;4;20120601
4;4;20120604
4;4;20120605
4;3;20120606
3;3;20120608
3;3;20120611
3;3;20120612
3;3;20120613
3;3;20120614
3;4;20120615
4;3;20120618
3;2;20120619
2;3;20120620
3;3;20120621
3;3;20120622
3;3;20120625
3;3;20120626
3;3;20120627
3;4;20120628
4;4;20120629
4;4;20120702
4;4;20120703
4;4;20120704
4;5;20120705
5;4;20120706
4;3;20120709
3;3;20120710
3;4;20120711
4;4;20120712
4;3;20120713
3;3;20120716
3;3;20120717
3;3;20120718
3;2;20120719
2;2;20120720
2;3;20120723
3;2;20120724
2;3;20120725
3;3;20120726
3;3;20120727
3;2;20120730
2;3;20120731
3;4;20120801
4;4;20120802
4;4;20120803
4;2;20120806
2;2;20120807
2;3;20120808
3;0;20120809
0;0;20120810
0;3;20120813
3;2;20120814
2;2;20120816
2;2;20120817
2;3;20120820
3;3;20120821
3;3;20120822
3;2;20120823
2;3;20120824
3;3;20120827
3;3;20120828
3;3;20120829
3;3;20120830
3;4;20120831
4;3;20120903
3;1;20120904
1;4;20120905
4;3;20120906
3;3;20120907
3;4;20120910
4;3;20120911
3;2;20120912
2;1;20120913
1;4;20120914
4;2;20120917
2;3;20120918
3;4;20120919
4;4;20120920
4;3;20120921
3;3;20120924
3;3;20120925
3;3;20120926
3;3;20120927
3;3;20120928
3;4;20121001
4;3;20121002
3;3;20121003
3;3;20121004
3;3;20121005
3;3;20121008
3;3;20121009
3;2;20121010
2;3;20121011
3;4;20121012
4;4;20121015
4;3;20121016
3;3;20121017
3;3;20121018
3;4;20121019
4;3;20121022
3;3;20121023
3;3;20121024
3;1;20121025
1;3;20121026
3;3;20121029
3;4;20121030
4;2;20121031
2;3;20121102
3;3;20121105
3;3;20121106
3;3;20121107
3;3;20121108
3;3;20121109
3;2;20121112
2;3;20121113
3;3;20121114
3;4;20121115
4;3;20121116
3;2;20121119
2;3;20121120
3;3;20121121
3;3;20121122
3;2;20121123
2;3;20121126
3;3;20121127
3;3;20121128
3;4;20121129
4;3;20121130
3;3;20121203
3;3;20121204
3;3;20121205
3;3;20121206
3;3;20121207
3;2;20121210
2;2;20121211
2;3;20121212
3;5;20121213
5;4;20121214
4;4;20121217
4;3;20121218
3;3;20121219
3;3;20121220
3;2;20121221
2;4;20121227
4;4;20121228
4;2;20130102
2;4;20130103
4;2;20130104
2;3;20130107
3;3;20130108
3;4;20130109
4;3;20130110
3;4;20130111
4;4;20130114
4;3;20130115
3;3;20130116
3;3;20130117
3;5;20130118
5;5;20130121
5;4;20130122
4;3;20130123
3;4;20130124
4;3;20130125
3;4;20130128
4;4;20130129
4;5;20130130
5;4;20130131
4;4;20130201
4;4;20130204
4;3;20130205
3;3;20130206
3;4;20130207
4;4;20130208
4;4;20130211
4;5;20130212
5;4;20130213
4;4;20130214
4;4;20130215
4;4;20130218
4;4;20130219
4;4;20130220
4;4;20130221
4;4;20130222
4;4;20130225
4;4;20130226
4;4;20130227
4;4;20130228
4;3;20130301
3;4;20130304
4;3;20130305
3;3;20130306
3;3;20130307
3;4;20130308
4;4;20130311
4;3;20130312
3;4;20130313
4;4;20130314
4;4;20130315
4;3;20130318
3;4;20130319
4;3;20130320
3;3;20130321
3;4;20130322
4;3;20130325
3;4;20130326
4;3;20130327
3;4;20130328
4;4;20130402
4;4;20130403
4;3;20130404
3;4;20130405
4;3;20130408
3;3;20130409
3;4;20130410
4;4;20130411
4;4;20130412
4;3;20130415
3;3;20130417
3;3;20130418
3;4;20130419
4;4;20130422
4;3;20130423
3;3;20130424
3;3;20130425
3;4;20130426
4;4;20130429
4;2;20130430
2;1;20130502
1;3;20130506
3;3;20130507
3;3;20130508
3;4;20130509
4;3;20130510
3;3;20130513
3;3;20130514
3;4;20130515
4;4;20130516
4;4;20130517
4;5;20130520
5;5;20130521
5;1;20130522
1;4;20130523
4;2;20130524
2;3;20130527
3;2;20130528
2;3;20130529
3;2;20130531
2;2;20130603
2;3;20130604
3;2;20130605
2;3;20130606
3;3;20130607
3;4;20130610
4;3;20130611
3;4;20130612
4;4;20130613
4;3;20130614
3;3;20130617
3;4;20130618
4;3;20130619
3;4;20130620
4;3;20130621
3;3;20130624
3;3;20130625
3;2;20130626
2;3;20130627
3;4;20130628
4;3;20130701
3;3;20130702
3;3;20130703
3;4;20130704
4;2;20130705
2;3;20130708
3;3;20130709
3;3;20130710
3;3;20130711
3;3;20130712
3;2;20130715
2;3;20130716
3;2;20130717
2;1;20130718
1;3;20130722
3;2;20130723
2;3;20130724
3;3;20130725
3;2;20130726
2;2;20130729
2;2;20130730
2;3;20130731
3;3;20130801
3;3;20130802
3;3;20130805
3;4;20130806
4;4;20130807
4;3;20130808
3;4;20130809
4;3;20130812
3;3;20130813
3;3;20130814
3;2;20130816
2;4;20130819
4;3;20130820
3;3;20130821
3;4;20130822
4;3;20130823
3;4;20130826
4;3;20130827
3;3;20130828
3;4;20130829
4;4;20130830
4;2;20130902
2;4;20130903
4;3;20130904
3;4;20130905
4;3;20130906
3;2;20130909
2;4;20130910
4;4;20130911
4;3;20130912
3;5;20130913
5;4;20130916
4;4;20130917
4;4;20130918
4;4;20130919
4;3;20130920
3;4;20130923
4;4;20130924
4;4;20130925
4;4;20130926
4;3;20130927
3;4;20130930
4;2;20131001
2;3;20131002
3;3;20131003
3;3;20131004
3;3;20131007
3;3;20131008
3;3;20131009
3;4;20131010
4;3;20131011
3;4;20131014
4;3;20131015
3;3;20131016
3;3;20131017
3;3;20131018
3;4;20131021
4;4;20131022
4;4;20131023
4;4;20131024
4;4;20131025
4;4;20131028
4;4;20131029
4;4;20131030
4;3;20131031
3;4;20131104
4;3;20131105
3;4;20131106
4;4;20131107
4;3;20131108
3;3;20131112
3;3;20131113
3;4;20131114
4;4;20131115
4;4;20131118
4;4;20131119
4;3;20131120
3;3;20131121
3;3;20131122
3;3;20131125
3;3;20131126
3;4;20131127
4;3;20131128
3;4;20131129
4;4;20131202
4;3;20131203
3;3;20131204
3;4;20131205
4;4;20131206
4;3;20131209
3;4;20131210
4;3;20131211
3;4;20131212
4;3;20131213
3;3;20131216
3;3;20131217
3;3;20131218
3;3;20131219
3;4;20131220
4;4;20131223
4;2;20131227
2;3;20131230
3;2;20140102
2;3;20140103
3;3;20140107
3;3;20140108
3;2;20140109
2;4;20140110
4;3;20140113
3;2;20140114
2;3;20140115
3;3;20140116
3;2;20140117
2;3;20140120
3;4;20140121
4;3;20140122
3;3;20140123
3;3;20140124
3;3;20140127
3;4;20140128
4;4;20140129
4;4;20140130
4;4;20140131
4;4;20140203
4;3;20140204
3;4;20140205
4;4;20140206
4;4;20140207
4;3;20140210
3;4;20140211
4;4;20140212
4;3;20140213
3;3;20140214
3;3;20140217
3;3;20140218
3;3;20140219
3;3;20140220
3;3;20140221
3;3;20140224
3;3;20140225
3;3;20140226
3;3;20140227
3;3;20140228
3;4;20140303
4;3;20140304
3;4;20140305
4;3;20140306
3;4;20140307
4;3;20140310
3;3;20140311
3;3;20140312
3;3;20140313
3;4;20140314
4;3;20140317
3;3;20140318
3;4;20140319
4;3;20140320
3;3;20140321
3;3;20140324
3;2;20140325
2;3;20140326
3;2;20140327
2;3;20140328
3;3;20140331
3;4;20140401
4;3;20140402
3;4;20140403
4;4;20140404
4;4;20140407
4;3;20140408
3;3;20140409
3;3;20140410
3;3;20140411
3;3;20140414
3;4;20140415
4;3;20140416
3;4;20140417
4;3;20140422
3;3;20140423
3;3;20140424
3;2;20140425
2;1;20140428
1;1;20140429
1;2;20140430
2;1;20140502
1;3;20140505
3;2;20140506
2;3;20140507
3;4;20140508
4;2;20140509
2;3;20140512
3;4;20140513
4;3;20140514
3;3;20140515
3;3;20140516
3;3;20140519
3;3;20140520
3;3;20140521
3;3;20140522
3;4;20140523
4;3;20140526
3;2;20140527
2;3;20140528
3;2;20140529
2;1;20140530
1;2;20140602
2;3;20140603
3;3;20140604
3;3;20140605
3;2;20140606
2;2;20140609
2;3;20140610
3;3;20140611
3;2;20140612
2;1;20140613
1;2;20140616
2;2;20140617
2;2;20140618
2;3;20140620
3;2;20140623
2;3;20140624
3;3;20140625
3;3;20140626
3;2;20140627
2;2;20140630
2;3;20140701
3;3;20140703
3;2;20140704
2;2;20140707
2;2;20140708
2;3;20140710
3;3;20140711
3;3;20140714
3;3;20140715
3;3;20140716
3;3;20140717
3;3;20140718
3;3;20140721
3;3;20140722
3;3;20140723
3;3;20140724
3;3;20140725
3;3;20140728
3;3;20140729
3;2;20140730
2;1;20140731
1;3;20140801
3;2;20140804
2;3;20140805
3;3;20140806
3;2;20140807
2;3;20140808
3;4;20140811
4;2;20140812
2;2;20140813
2;4;20140814
4;3;20140818
3;2;20140819
2;2;20140820
2;3;20140821
3;4;20140822
4;4;20140825
4;4;20140826
4;3;20140827
3;4;20140828
4;3;20140829
3;3;20140901
3;4;20140902
4;3;20140903
3;3;20140904
3;3;20140905
3;3;20140908
3;4;20140909
4;3;20140910
3;4;20140911
4;3;20140912
3;3;20140915
3;4;20140916
4;3;20140917
3;3;20140918
3;3;20140919
3;3;20140922
3;3;20140923
3;3;20140924
3;3;20140925
3;2;20140929
2;3;20140930
3;3;20141001
3;3;20141002
3;2;20141003
2;3;20141006
3;2;20141007
2;1;20141008
1;3;20141009
3;3;20141010
3;2;20141013
2;3;20141014
3;3;20141015
3;3;20141016
3;4;20141017
4;3;20141020
3;3;20141021
3;4;20141022
4;3;20141023
3;4;20141024
4;2;20141027
2;3;20141028
3;3;20141029
3;2;20141030
2;2;20141031
2;2;20141103
2;3;20141104
3;3;20141105
3;3;20141106
3;2;20141107
2;3;20141110
3;3;20141112
3;2;20141113
2;2;20141114
2;3;20141117
3;2;20141118
2;3;20141119
3;3;20141120
3;3;20141121
3;4;20141124
4;3;20141125
3;3;20141126
3;2;20141127
2;3;20141128
3;2;20141201
2;3;20141202
3;4;20141203
4;3;20141204
3;3;20141205
3;4;20141208
4;3;20141209
3;4;20141210
4;4;20141211
4;4;20141212
4;2;20141215
2;3;20141216
3;4;20141217
4;4;20141218
4;2;20141219
2;4;20141222
4;4;20141223
4;3;20141229
3;3;20141230
